Structure Acceleration, RAO-Based Response
Line A: Structure Acceleration, RAO-Based Response - Global RY (Trimaran) [?s²]
,
*Time (s),Line A (?s?
99.7,6.29E-04
99.701,6.40E-04
99.702,6.51E-04
99.703,6.62E-04
99.70399,6.73E-04
99.70499,6.83E-04
99.70599,6.94E-04
99.707,7.05E-04
99.708,7.16E-04
99.709,7.27E-04
99.71,7.37E-04
99.711,7.48E-04
99.712,7.59E-04
99.713,7.70E-04
99.714,7.81E-04
99.715,7.91E-04
99.716,8.02E-04
99.717,8.13E-04
99.71799,8.24E-04
99.71899,8.34E-04
99.71999,8.45E-04
99.721,8.56E-04
99.722,8.67E-04
99.723,8.77E-04
99.724,8.88E-04
99.725,8.99E-04
99.726,9.10E-04
99.727,9.20E-04
99.728,9.31E-04
99.729,9.42E-04
99.73,9.52E-04
99.731,9.63E-04
99.73199,9.74E-04
99.73299,9.84E-04
99.73399,9.95E-04
99.735,1.01E-03
99.736,1.02E-03
99.737,1.03E-03
99.738,1.04E-03
99.739,1.05E-03
99.74,1.06E-03
99.741,1.07E-03
99.742,1.08E-03
99.743,1.09E-03
99.744,1.10E-03
99.745,1.11E-03
99.74599,1.12E-03
99.74699,1.13E-03
99.74799,1.14E-03
99.749,1.16E-03
99.75,1.17E-03
99.751,1.18E-03
99.752,1.19E-03
99.753,1.20E-03
99.754,1.21E-03
99.755,1.22E-03
99.756,1.23E-03
99.757,1.24E-03
99.758,1.25E-03
99.759,1.26E-03
99.75999,1.27E-03
99.76099,1.28E-03
99.76199,1.29E-03
99.763,1.30E-03
99.764,1.31E-03
99.765,0.00132499
99.766,1.34E-03
99.767,1.35E-03
99.768,1.36E-03
99.769,1.37E-03
99.77,1.38E-03
99.771,1.39E-03
99.772,1.40E-03
99.77299,1.41E-03
99.77399,1.42E-03
99.77499,1.43E-03
99.77599,1.44E-03
99.777,1.45E-03
99.778,1.46E-03
99.779,1.47E-03
99.78,1.48E-03
99.781,1.49E-03
99.782,1.50E-03
99.783,1.51E-03
99.784,1.52E-03
99.785,1.54E-03
99.786,1.55E-03
99.78699,1.56E-03
99.78799,1.57E-03
99.78899,1.58E-03
99.78999,1.59E-03
99.791,1.60E-03
99.792,1.61E-03
99.793,1.62E-03
99.794,1.63E-03
99.795,1.64E-03
99.796,1.65E-03
99.797,1.66E-03
99.798,1.67E-03
99.799,1.68E-03
99.8,1.69E-03
99.80099,1.70E-03
99.80199,1.71E-03
99.80299,1.72E-03
99.80399,1.73E-03
99.805,1.74E-03
99.806,1.75E-03
99.807,1.76E-03
99.808,1.77E-03
99.809,1.78E-03
99.81,1.80E-03
99.811,1.81E-03
99.812,1.82E-03
99.813,1.83E-03
99.814,1.84E-03
99.81499,1.85E-03
99.81599,1.86E-03
99.81699,1.87E-03
99.81799,1.88E-03
99.819,1.89E-03
99.82,1.90E-03
99.821,1.91E-03
99.822,1.92E-03
99.823,1.93E-03
99.824,1.94E-03
99.825,1.95E-03
99.826,1.96E-03
99.827,1.97E-03
99.828,1.98E-03
99.82899,1.99E-03
99.82999,2.00E-03
99.83099,0.002011216
99.832,2.02E-03
99.833,2.03E-03
99.834,2.04E-03
99.835,2.05E-03
99.836,2.06E-03
99.837,2.07E-03
99.838,2.08E-03
99.839,2.09E-03
99.84,2.10E-03
99.841,2.11E-03
99.842,2.12E-03
99.84299,2.13E-03
99.84399,2.14E-03
99.84499,2.15E-03
99.846,2.16E-03
99.847,2.17E-03
99.848,2.18E-03
99.849,2.19E-03
99.85,2.21E-03
99.851,2.22E-03
99.852,2.23E-03
99.853,2.24E-03
99.854,2.25E-03
99.855,2.26E-03
99.856,2.27E-03
99.85699,2.28E-03
99.85799,2.29E-03
99.85899,2.30E-03
99.86,2.31E-03
99.861,2.32E-03
99.862,2.33E-03
99.863,2.34E-03
99.864,2.35E-03
99.865,2.36E-03
99.866,2.37E-03
99.867,2.38E-03
99.868,2.39E-03
99.869,2.40E-03
99.87,2.41E-03
99.87099,2.42E-03
99.87199,2.43E-03
99.87299,2.44E-03
99.874,2.46E-03
99.875,2.47E-03
99.876,2.48E-03
99.877,2.49E-03
99.878,2.50E-03
99.879,2.52E-03
99.88,2.53E-03
99.881,2.54E-03
99.882,2.56E-03
99.883,2.49E-03
99.884,-7.67E-04
99.88499,-2.34E-03
99.88599,-2.48E-03
99.88699,-2.53E-03
99.888,-2.56E-03
99.889,-2.58E-03
99.89,-2.60E-03
99.891,-2.61E-03
99.892,-2.62E-03
99.893,-2.63E-03
99.894,-2.64E-03
99.895,-2.65E-03
99.896,-2.66E-03
99.897,-2.66E-03
99.89799,-2.67E-03
99.89899,-2.68E-03
99.89999,-2.68E-03
99.90099,-2.69E-03
99.902,-2.70E-03
99.903,-2.70E-03
99.904,-2.71E-03
99.905,-2.72E-03
99.906,-2.72E-03
99.907,-2.73E-03
99.908,-2.74E-03
99.909,-2.75E-03
99.91,-2.76E-03
99.911,-2.78E-03
99.91199,-2.79E-03
99.91299,-2.80E-03
99.91399,-2.81E-03
99.91499,-2.82E-03
99.916,-2.84E-03
99.917,-2.85E-03
99.918,-2.86E-03
99.919,-2.87E-03
99.92,-2.88E-03
99.921,-2.89E-03
99.922,-2.90E-03
99.923,-2.90E-03
99.924,-2.91E-03
99.925,-2.92E-03
99.92599,-2.92E-03
99.92699,-2.93E-03
99.92799,-2.94E-03
99.92899,-2.94E-03
99.93,-2.95E-03
99.931,-2.96E-03
99.932,-2.97E-03
99.933,-2.98E-03
99.934,-2.99E-03
99.935,-3.00E-03
99.936,-3.01E-03
99.937,-3.02E-03
99.938,-3.03E-03
99.939,-3.04E-03
99.93999,-3.05E-03
99.94099,-3.06E-03
99.94199,-3.06E-03
99.94299,-3.07E-03
99.944,-3.08E-03
99.945,-3.09E-03
99.946,-3.10E-03
99.947,-3.11E-03
99.948,-3.12E-03
99.949,-3.13E-03
99.95,-3.14E-03
99.951,-3.15E-03
99.952,-3.16E-03
99.953,-3.17E-03
99.95399,-3.18E-03
99.95499,-3.19E-03
99.95599,-3.20E-03
99.957,-3.21E-03
99.958,-3.22E-03
99.959,-3.24E-03
99.96,-3.25E-03
99.961,-3.27E-03
99.962,-3.28E-03
99.963,-3.31E-03
99.964,3.25E-03
99.965,3.29E-03
99.966,3.31E-03
99.967,3.33E-03
99.96799,3.34E-03
99.96899,3.35E-03
99.96999,3.36E-03
99.971,3.37E-03
99.972,3.37E-03
99.973,3.38E-03
99.974,3.39E-03
99.975,3.40E-03
99.976,3.41E-03
99.977,3.41E-03
99.978,3.42E-03
99.979,3.43E-03
99.98,3.44E-03
99.981,3.45E-03
99.98199,3.45E-03
99.98299,3.46E-03
99.98399,3.47E-03
99.985,3.48E-03
99.986,0.003486288
99.987,3.49E-03
99.988,3.50E-03
99.989,3.51E-03
99.99,3.52E-03
99.991,3.53E-03
99.992,3.54E-03
99.993,3.55E-03
99.994,3.55E-03
99.995,3.56E-03
99.99599,3.57E-03
99.99699,3.58E-03
99.99799,3.59E-03
99.999,3.60E-03
100,3.61E-03
100.001,3.61E-03
100.002,3.62E-03
100.003,3.63E-03
100.004,3.64E-03
100.005,3.65E-03
100.006,3.66E-03
100.007,3.66E-03
100.008,3.67E-03
100.009,3.68E-03
100.00999,3.69E-03
100.01099,3.70E-03
100.01199,3.71E-03
100.013,3.72E-03
100.014,3.73E-03
100.015,3.73E-03
100.016,3.74E-03
100.017,3.75E-03
100.018,3.76E-03
100.019,3.77E-03
100.02,3.78E-03
100.021,3.79E-03
100.022,3.80E-03
100.02299,3.81E-03
100.02399,3.81E-03
100.02499,3.81E-03
100.02599,3.76E-03
100.027,3.43E-03
100.028,-2.65E-04
100.029,-3.34E-03
100.03,-3.71E-03
100.031,-3.82E-03
100.032,-3.88E-03
100.033,-3.89E-03
100.034,-3.90E-03
100.035,-3.91E-03
100.036,-3.91E-03
100.03699,-3.91E-03
100.03799,-3.91E-03
100.03899,-3.92E-03
100.03999,-3.92E-03
100.041,-3.92E-03
100.042,-3.93E-03
100.043,-3.93E-03
100.044,-3.94E-03
100.045,-3.94E-03
100.046,-3.95E-03
100.047,-3.96E-03
100.048,-3.97E-03
100.049,-3.97E-03
100.05,-3.98E-03
100.05099,-4.00E-03
100.05199,-4.01E-03
100.05299,-4.02E-03
100.05399,-4.03E-03
100.055,-4.04E-03
100.056,-4.06E-03
100.057,-4.07E-03
100.058,-4.08E-03
100.059,-4.10E-03
100.06,-4.11E-03
100.061,-4.12E-03
100.062,-4.11E-03
100.063,-4.10E-03
100.064,-4.08E-03
100.06499,-4.05E-03
100.06599,-4.02E-03
100.06699,-3.96E-03
100.06799,-3.86E-03
100.069,-3.63E-03
100.07,-2.92E-03
100.071,2.73E-04
100.072,3.62E-03
100.073,4.12E-03
100.074,4.21E-03
100.075,4.23E-03
100.076,4.24E-03
100.077,4.25E-03
100.078,4.25E-03
100.07899,4.26E-03
100.07999,4.27E-03
100.08099,4.27E-03
100.082,4.28E-03
100.083,4.29E-03
100.084,4.29E-03
100.085,4.30E-03
100.086,4.31E-03
100.087,4.31E-03
100.088,4.32E-03
100.089,4.33E-03
100.09,4.33E-03
100.091,4.34E-03
100.092,4.34E-03
100.09299,4.35E-03
100.09399,4.35E-03
100.09499,4.36E-03
100.096,4.36E-03
100.097,4.37E-03
100.098,4.38E-03
100.099,4.38E-03
100.1,4.39E-03
100.101,4.40E-03
100.102,4.41E-03
100.103,4.42E-03
100.104,4.43E-03
100.105,4.44E-03
100.106,4.45E-03
100.10699,4.46E-03
100.10799,4.45E-03
100.10899,4.41E-03
100.11,4.37E-03
100.111,4.31E-03
100.112,4.24E-03
100.113,4.16E-03
100.114,4.07E-03
100.115,3.97E-03
100.116,3.85E-03
100.117,3.73E-03
100.118,3.61E-03
100.119,3.40E-03
100.12,3.14E-03
100.12099,2.92E-03
100.12199,2.75E-03
100.12299,2.64E-03
100.124,2.60E-03
100.125,2.60E-03
100.126,2.66E-03
100.127,2.76E-03
100.128,2.90E-03
100.129,3.10E-03
100.13,3.33E-03
100.131,3.60E-03
100.132,3.84E-03
100.133,3.87E-03
100.134,3.84E-03
100.13499,3.75E-03
100.13599,3.63E-03
100.13699,3.49E-03
100.138,3.36E-03
100.139,3.29E-03
100.14,3.26E-03
100.141,3.24E-03
100.142,3.31E-03
100.143,3.44E-03
100.144,3.60E-03
100.145,3.65E-03
100.146,3.63E-03
100.147,3.53E-03
100.14799,3.35E-03
100.14899,3.16E-03
100.14999,3.02E-03
,4.46E-03
,-4.12E-03
