Structure Acceleration, RAO-Based Response
Line A: Structure Acceleration, RAO-Based Response - Global RY (Trimaran) [?s²]
,
*Time (s),Line A (?s?
103.5,0.122364402
103.501,0.122392826
103.502,0.12242011
103.503,0.122447841
103.504,0.12247543
103.505,0.122501649
103.506,0.12252903
103.507,0.122555725
103.508,0.122583047
103.509,0.122608177
103.51,0.122634605
103.511,0.122660421
103.512,0.12268614
103.513,0.122710325
103.514,0.122735098
103.515,0.122760296
103.516,0.122784846
103.517,0.122808203
103.518,0.122832373
103.519,0.122856334
103.52,0.12287955
103.521,0.122901894
103.522,0.12292441
103.523,0.122948222
103.524,0.122969724
103.525,0.122991629
103.526,0.123012468
103.527,0.123035386
103.528,0.123056382
103.529,0.123076983
103.53,0.123097897
103.531,0.12311814
103.532,0.123138145
103.533,0.123157941
103.534,0.12317834
103.535,0.123197868
103.536,0.123216093
103.537,0.123234943
103.538,0.123253912
103.539,0.123272493
103.54,0.123289824
103.541,0.123306885
103.542,0.123325072
103.543,0.123342156
103.544,0.123359837
103.545,0.123376086
103.546,0.123392463
103.547,0.123408303
103.548,0.123424932
103.549,0.12343993
103.55,0.12345586
103.551,0.123470597
103.552,0.123485446
103.553,0.123500548
103.554,0.123514622
103.555,0.123528138
103.556,0.123542406
103.557,0.123555444
103.558,0.123568796
103.559,0.123581685
103.56,0.123593085
103.561,0.123606138
103.562,0.123617716
103.563,0.123630054
103.564,0.123641431
103.565,0.123653531
103.566,0.123663515
103.567,0.123674557
103.568,0.123684682
103.569,0.12369629
103.57,0.123705029
103.571,0.123715192
103.572,0.12372449
103.573,0.123733416
103.574,0.123741806
103.575,0.123751037
103.576,0.123759389
103.577,0.123766698
103.578,0.123774424
103.579,0.123781502
103.58,0.123789839
103.581,0.123796403
103.582,0.123802811
103.583,0.123808265
103.584,0.123815522
103.585,0.12382111
103.586,0.123826317
103.587,0.123831853
103.588,0.123837017
103.589,0.123841286
103.59,0.123845607
103.591,0.123849593
103.592,0.123854168
103.593,0.123857036
103.594,0.123860329
103.595,0.123864278
103.596,0.123866044
103.597,0.123869054
103.598,0.123870671
103.599,0.123873271
103.6,0.123874955
103.601,0.123876691
103.602,0.12387637
103.603,0.123878479
103.604,0.123878807
103.605,0.123879753
103.606,0.12387874
103.607,0.123879515
103.608,0.123878852
103.609,0.123878345
103.61,0.123877473
103.611,0.123877034
103.612,0.123874754
103.613,0.123873062
103.614,0.123871177
103.615,0.123868175
103.616,0.123866126
103.617,0.123863012
103.618,0.123860374
103.619,0.123857133
103.62,0.123853639
103.621,0.12384966
103.622,0.12384671
103.623,0.123841591
103.624,0.123837173
103.625,0.123832129
103.626,0.123828113
103.627,0.123822711
103.628,0.123817511
103.629,0.123812258
103.63,0.123805784
103.631,0.123799779
103.632,0.12379311
103.633,0.123787522
103.634,0.123780638
103.635,0.123773418
103.636,0.123765841
103.637,0.123760104
103.638,0.123751953
103.639,0.123744085
103.64,0.123735987
103.641,0.123729356
103.642,0.123720072
103.643,0.123712666
103.644,0.123703331
103.645,0.123695485
103.646,0.123686671
103.647,0.123677827
103.648,0.1236687
103.649,0.123660311
103.65,0.123650916
103.651,0.12364123
103.652,0.123633698
103.653,0.123623505
103.654,0.123614416
103.655,0.123604789
103.656,0.123596542
103.657,0.123587616
103.658,0.123579331
103.659,0.12356966
103.66,0.123562127
103.661,0.123553559
103.662,0.123545915
103.663,0.123537928
103.664,0.123531803
103.665,0.123524904
103.666,0.123520277
103.667,0.123514473
103.668,0.123512477
103.669,0.123510085
103.67,0.123508848
103.671,0.123510525
103.672,0.123514205
103.673,0.123521157
103.674,0.123531707
103.675,0.123546928
103.676,0.123566091
103.677,0.12359193
103.678,0.123621047
103.679,0.123646557
103.68,0.123626493
103.681,0.123339877
103.682,0.120607294
103.683,7.94E-03
103.684,-0.114845671
103.685,-0.120540567
103.686,-0.121927761
103.687,-0.122490503
103.688,-0.122722626
103.689,-0.122813262
103.69,-0.122837648
103.691,-0.122823812
103.692,-0.122785889
103.693,-0.122728013
103.694,-0.12265674
103.695,-0.122569069
103.696,-0.122468986
103.697,-0.12235485
103.698,-0.12223459
103.699,-0.122130483
103.7,-0.122050412
103.701,-0.121991552
103.702,-0.121953577
103.703,-0.121931687
103.704,-0.121925481
103.705,-0.121932164
103.706,-0.121950708
103.707,-0.121974625
103.708,-0.121982776
103.709,-0.121976584
103.71,-0.12195307
103.711,-0.121915914
103.712,-0.121865638
103.713,-0.121803351
103.714,-0.121732019
103.715,-0.121670403
103.716,-0.121620581
103.717,-0.121585906
103.718,-0.12156108
103.719,-0.121548913
103.72,-0.121542685
103.721,-0.121527769
103.722,-0.121497914
103.723,-0.121456467
103.724,-0.121401288
103.725,-0.121339515
103.726,-0.121286042
103.727,-0.121241726
103.728,-0.121210232
103.729,-0.121183261
103.73,-0.121155255
103.731,-0.121119544
103.732,-0.121073872
103.733,-0.121020228
103.734,-0.12097358
103.735,-0.120933652
103.736,-0.120899595
103.737,-0.120857321
103.738,-0.120812431
103.739,-0.120765232
103.74,-0.120722152
103.741,-0.120679945
103.742,-0.120635033
103.743,-0.120587029
103.744,-0.120540045
103.745,-0.120493248
103.746,-0.120445222
103.747,-0.12039724
103.748,-0.120351017
103.749,-0.120303512
103.75,-0.120249659
103.751,-0.120190948
103.752,-0.120131917
103.753,-0.12008024
103.754,-0.120039165
103.755,-0.120013885
103.756,-0.119986229
103.757,-0.11995168
103.758,-0.119902141
103.759,-0.119823702
103.76,-0.11968834
103.761,-0.119497307
103.762,-0.119117476
103.763,0.120571047
103.764,0.11964684
103.765,0.11946819
103.766,0.119363599
103.767,0.119282335
103.768,0.119210497
103.769,0.119144715
103.77,0.119083285
103.771,0.119022772
103.772,0.118965931
103.773,0.118909538
103.774,0.118855327
103.775,0.118801616
103.776,0.118748486
103.777,0.118695892
103.778,0.118645459
103.779,0.118593737
103.78,0.118542738
103.781,0.118492886
103.782,0.118443191
103.783,0.118393101
103.784,0.118343011
103.785,0.118293025
103.786,0.118243545
103.787,0.118193693
103.788,0.118143
103.789,0.118092827
103.79,0.118042827
103.791,0.117992319
103.792,0.117941864
103.793,0.117891625
103.794,0.117840484
103.795,0.117790468
103.796,0.117740162
103.797,0.11769107
103.798,0.117642447
103.799,0.11759299
103.8,0.117547274
103.801,0.117502294
103.802,0.117458843
103.803,0.117417261
103.804,0.11737892
103.805,0.117343463
103.806,0.117312208
103.807,0.117283724
103.808,0.117261626
103.809,0.117243066
103.81,0.117231153
103.811,0.117224954
103.812,0.117227755
103.813,0.117237143
103.814,0.117256649
103.815,0.117259637
103.816,0.117239468
103.817,0.117227018
103.818,0.117226645
103.819,0.117240183
103.82,0.117268562
103.821,0.117308684
103.822,0.117325053
103.823,0.117134288
103.824,0.115271568
103.825,7.88E-02
103.826,-9.47E-02
103.827,-0.110761002
103.828,-0.113801159
103.829,-0.114908606
103.83,-0.115439601
103.831,-0.115737066
103.832,-0.115845986
103.833,-0.115838408
103.834,-0.115795411
103.835,-0.115734704
103.836,-0.115661263
103.837,-0.115582027
103.838,-0.115500264
103.839,-0.115418047
103.84,-0.115337446
103.841,-0.115257628
103.842,-0.115180522
103.843,-0.115106381
103.844,-0.115035646
103.845,-0.11496596
103.846,-0.114898153
103.847,-0.11483182
103.848,-0.114688613
103.849,-0.114455163
103.85,-0.114202403
103.851,-0.113924049
103.852,-0.113620117
103.853,-0.113285013
103.854,-0.112914823
103.855,-0.112499341
103.856,-0.112031296
103.857,-0.111498222
103.858,-0.110878475
103.859,-0.110150747
103.86,-0.109326251
103.861,-0.108369015
103.862,-0.10719081
103.863,-0.105619371
103.864,-0.103263684
103.865,-9.90E-02
103.866,-8.89E-02
103.867,-4.70E-02
103.868,8.69E-02
103.869,0.112872519
103.87,0.113735512
103.871,0.112996705
103.872,0.111893706
103.873,0.110984743
103.874,0.110247135
103.875,0.109649345
103.876,0.109164536
103.877,0.10877265
103.878,0.108458705
103.879,0.108211532
103.88,0.108022563
103.881,0.107884243
103.882,0.107789502
103.883,0.107733198
103.884,0.107709892
103.885,0.107714921
103.886,0.107742287
103.887,0.107788168
103.888,0.107848823
103.889,0.107920855
103.89,0.107998408
103.891,0.108080357
103.892,0.108163454
103.893,0.108244352
103.894,0.108320579
103.895,0.108390495
103.896,0.108451962
103.897,0.108502075
103.898,0.108541317
103.899,0.108565293
103.9,0.10857334
103.901,0.108563922
103.902,0.108532161
103.903,0.108477362
103.904,0.108396895
103.905,0.108285069
103.906,0.10813719
103.907,0.107950389
103.908,0.107713737
103.909,0.107421651
103.91,0.107062578
103.911,0.106626302
103.912,0.106100909
103.913,0.10546875
103.914,0.104713559
103.915,0.10381934
103.916,0.102770098
103.917,0.101559237
103.918,0.100190714
103.919,0.098696657
103.92,9.71E-02
103.921,9.45E-02
103.922,9.05E-02
103.923,8.68E-02
103.924,8.36E-02
103.925,0.081094891
103.926,7.93E-02
103.927,7.81E-02
103.928,7.76E-02
103.929,0.077770822
103.93,7.86E-02
103.931,8.00E-02
103.932,8.20E-02
103.933,8.44E-02
103.934,8.71E-02
103.935,8.89E-02
103.936,8.85E-02
103.937,8.79E-02
103.938,0.086722769
103.939,8.51E-02
103.94,8.32E-02
103.941,8.11E-02
103.942,7.91E-02
103.943,7.73E-02
103.944,7.54E-02
103.945,0.073933907
103.946,7.34E-02
103.947,7.37E-02
103.948,7.41E-02
103.949,7.40E-02
103.95,7.36E-02
,0.123879753
,-0.122837648
