Structure Acceleration, RAO-Based Response
Line A: Structure Acceleration, RAO-Based Response - Global RY (Trimaran) [?s²]
,
*Time (s),Line A (?s?
99.9,5.93E-03
99.901,5.95E-03
99.902,5.98E-03
99.903,6.00E-03
99.904,6.02E-03
99.905,6.04E-03
99.906,6.06E-03
99.90701,6.08E-03
99.908,6.10E-03
99.909,6.12E-03
99.91,6.14E-03
99.911,6.16E-03
99.912,6.19E-03
99.913,6.21E-03
99.914,6.23E-03
99.915,6.25E-03
99.916,6.27E-03
99.917,6.29E-03
99.918,6.31E-03
99.919,6.33E-03
99.92,6.35E-03
99.92101,6.37E-03
99.922,6.39E-03
99.923,6.41E-03
99.924,6.43E-03
99.925,6.46E-03
99.926,6.48E-03
99.927,6.50E-03
99.928,6.52E-03
99.929,6.54E-03
99.93,6.56E-03
99.931,6.58E-03
99.932,6.60E-03
99.933,6.62E-03
99.934,6.64E-03
99.93501,6.66E-03
99.936,6.68E-03
99.937,6.70E-03
99.938,6.72E-03
99.939,6.74E-03
99.94,6.76E-03
99.941,0.006782167
99.942,6.80E-03
99.943,6.82E-03
99.944,6.84E-03
99.945,6.86E-03
99.946,6.88E-03
99.947,6.90E-03
99.948,6.92E-03
99.94901,6.94E-03
99.95,6.96E-03
99.951,6.98E-03
99.952,7.00E-03
99.953,7.02E-03
99.954,7.04E-03
99.955,7.06E-03
99.956,7.08E-03
99.957,7.10E-03
99.958,7.12E-03
99.959,7.14E-03
99.96,7.16E-03
99.961,7.18E-03
99.962,7.20E-03
99.96301,7.22E-03
99.964,7.24E-03
99.965,7.26E-03
99.966,7.28E-03
99.967,7.30E-03
99.968,7.32E-03
99.969,7.34E-03
99.97,7.36E-03
99.971,7.38E-03
99.972,7.40E-03
99.973,7.42E-03
99.974,7.44E-03
99.975,7.46E-03
99.976,7.48E-03
99.97701,7.50E-03
99.978,7.52E-03
99.979,7.54E-03
99.98,7.56E-03
99.981,7.58E-03
99.982,7.59E-03
99.983,7.61E-03
99.984,7.63E-03
99.985,7.65E-03
99.986,7.67E-03
99.987,7.69E-03
99.988,7.71E-03
99.989,7.73E-03
99.99,7.75E-03
99.991,7.77E-03
99.992,7.79E-03
99.993,7.81E-03
99.994,7.83E-03
99.995,7.84E-03
99.996,7.86E-03
99.997,7.88E-03
99.998,7.90E-03
99.999,7.92E-03
100,7.94E-03
100.001,7.96E-03
100.002,7.98E-03
100.003,8.00E-03
100.004,8.01E-03
100.005,8.03E-03
100.006,8.05E-03
100.007,8.07E-03
100.008,8.09E-03
100.009,8.11E-03
100.01,8.13E-03
100.011,8.15E-03
100.012,8.16E-03
100.013,8.18E-03
100.014,8.20E-03
100.015,8.22E-03
100.016,8.24E-03
100.017,8.26E-03
100.018,8.28E-03
100.019,8.29E-03
100.02,8.31E-03
100.021,8.33E-03
100.022,8.35E-03
100.023,8.37E-03
100.024,8.39E-03
100.025,8.41E-03
100.026,8.42E-03
100.027,8.44E-03
100.028,8.46E-03
100.029,8.48E-03
100.03,8.50E-03
100.031,8.51E-03
100.03201,8.53E-03
100.033,8.55E-03
100.034,8.57E-03
100.035,8.59E-03
100.036,8.61E-03
100.037,8.62E-03
100.038,8.64E-03
100.039,8.66E-03
100.04,8.68E-03
100.041,8.70E-03
100.042,8.72E-03
100.043,8.73E-03
100.044,8.75E-03
100.045,8.77E-03
100.04601,8.79E-03
100.047,8.81E-03
100.048,8.82E-03
100.049,8.84E-03
100.05,8.86E-03
100.051,8.88E-03
100.052,8.90E-03
100.053,8.91E-03
100.054,8.93E-03
100.055,8.95E-03
100.056,8.97E-03
100.057,8.99E-03
100.058,9.00E-03
100.059,9.02E-03
100.06001,9.04E-03
100.061,9.06E-03
100.062,9.08E-03
100.063,9.10E-03
100.064,9.12E-03
100.065,9.13E-03
100.066,9.15E-03
100.067,9.17E-03
100.068,9.19E-03
100.069,9.21E-03
100.07,9.23E-03
100.071,9.25E-03
100.072,9.27E-03
100.073,9.29E-03
100.07401,9.31E-03
100.075,9.33E-03
100.076,9.36E-03
100.077,9.38E-03
100.078,9.41E-03
100.079,9.43E-03
100.08,9.46E-03
100.081,9.49E-03
100.082,9.50E-03
100.083,9.08E-03
100.084,-4.82E-03
100.085,-8.81E-03
100.086,-9.22E-03
100.087,-9.37E-03
100.08801,-9.44E-03
100.089,-9.49E-03
100.09,-9.52E-03
100.091,-9.54E-03
100.092,-9.56E-03
100.093,-9.58E-03
100.094,-9.59E-03
100.095,-9.60E-03
100.096,-9.61E-03
100.097,-9.62E-03
100.098,-9.63E-03
100.099,-9.63E-03
100.1,-9.64E-03
100.101,-9.64E-03
100.10201,-9.65E-03
100.103,-9.66E-03
100.104,-9.68E-03
100.105,-9.69E-03
100.106,-9.71E-03
100.107,-9.73E-03
100.108,-9.75E-03
100.109,-9.77E-03
100.11,-9.80E-03
100.111,-9.82E-03
100.112,-0.00983785
100.113,-9.86E-03
100.114,-9.87E-03
100.115,-9.88E-03
100.116,-9.90E-03
100.117,-9.91E-03
100.118,-9.92E-03
100.119,-9.93E-03
100.12,-9.94E-03
100.121,-9.95E-03
100.122,-9.97E-03
100.123,-9.99E-03
100.124,-1.00E-02
100.125,-1.00E-02
100.126,-1.00E-02
100.127,-1.01E-02
100.128,-1.01E-02
100.129,-1.01E-02
100.13,-1.01E-02
100.131,-1.01E-02
100.132,-1.01E-02
100.133,-1.01E-02
100.134,-1.02E-02
100.135,-0.010167183
100.136,-0.010184976
100.137,-1.02E-02
100.138,-1.02E-02
100.139,-1.02E-02
100.14,-1.03E-02
100.141,-1.03E-02
100.142,-1.03E-02
100.143,-1.03E-02
100.144,-0.010298983
100.145,-1.03E-02
100.146,-1.03E-02
100.147,-1.03E-02
100.148,-1.04E-02
100.149,-0.010370435
100.15,-1.04E-02
100.151,-1.04E-02
100.152,-1.04E-02
100.153,-1.04E-02
100.154,-1.04E-02
100.155,-1.05E-02
100.156,-1.05E-02
100.15701,-1.05E-02
100.158,-1.05E-02
100.159,-1.05E-02
100.16,-1.05E-02
100.161,-1.05E-02
100.162,-1.05E-02
100.163,-1.05E-02
100.164,1.05E-02
100.165,1.05E-02
100.166,1.05E-02
100.167,1.05E-02
100.168,1.05E-02
100.169,1.06E-02
100.17,1.06E-02
100.17101,1.06E-02
100.172,1.06E-02
100.173,1.06E-02
100.174,1.06E-02
100.175,1.06E-02
100.176,1.06E-02
100.177,1.06E-02
100.178,0.010662162
100.179,1.07E-02
100.18,1.07E-02
100.181,1.07E-02
100.182,1.07E-02
100.183,1.07E-02
100.184,1.07E-02
100.18501,1.08E-02
100.186,1.08E-02
100.187,1.08E-02
100.188,1.08E-02
100.189,1.08E-02
100.19,1.08E-02
100.191,0.010834401
100.192,1.08E-02
100.193,1.09E-02
100.194,1.09E-02
100.195,1.09E-02
100.196,1.09E-02
100.197,1.09E-02
100.198,0.010927559
100.19901,1.09E-02
100.2,1.10E-02
100.201,0.01096808
100.202,1.10E-02
100.203,0.010995727
100.204,1.10E-02
100.205,1.10E-02
100.206,1.10E-02
100.207,0.011055164
100.208,0.011071197
100.209,1.11E-02
100.21,1.11E-02
100.211,1.11E-02
100.212,1.11E-02
100.21301,1.12E-02
100.214,1.12E-02
100.215,1.12E-02
100.216,1.12E-02
100.217,1.13E-02
100.218,1.13E-02
100.219,1.13E-02
100.22,1.13E-02
100.221,1.14E-02
100.222,1.14E-02
100.223,1.15E-02
100.224,1.15E-02
100.225,1.15E-02
100.226,1.16E-02
100.22701,0.011207927
100.228,-5.83E-03
100.229,-1.06E-02
100.23,-1.11E-02
100.231,-1.12E-02
100.232,-0.01133738
100.233,-1.14E-02
100.234,-1.14E-02
100.235,-1.15E-02
100.236,-1.15E-02
100.237,-1.15E-02
100.238,-0.01153034
100.239,-1.15E-02
100.24,-1.16E-02
100.241,-1.16E-02
100.242,-1.16E-02
100.243,-1.16E-02
100.244,-1.16E-02
100.245,-1.16E-02
100.246,-0.011551802
100.247,-1.15E-02
100.248,-1.15E-02
100.249,-1.15E-02
100.25,-1.15E-02
100.251,-1.15E-02
100.252,-1.15E-02
100.253,-1.14E-02
100.254,-1.14E-02
100.255,-1.14E-02
100.256,-1.13E-02
100.257,-1.13E-02
100.258,-1.12E-02
100.259,-1.12E-02
100.26,-1.12E-02
100.261,-0.011111744
100.262,-1.11E-02
100.263,-1.10E-02
100.264,-1.10E-02
100.265,-1.10E-02
100.266,-1.09E-02
100.267,-1.08E-02
100.26801,-1.07E-02
100.269,-1.03E-02
100.27,-0.008347456
100.271,0.01204095
100.272,1.18E-02
100.273,1.15E-02
100.274,1.14E-02
100.275,1.13E-02
100.276,1.13E-02
100.277,1.12E-02
100.278,1.12E-02
100.279,1.12E-02
100.28,1.12E-02
100.281,1.13E-02
100.28201,1.13E-02
100.283,1.13E-02
100.284,1.14E-02
100.285,1.14E-02
100.286,1.14E-02
100.287,1.15E-02
100.288,1.15E-02
100.289,1.16E-02
100.29,1.16E-02
100.291,0.011670253
100.292,1.17E-02
100.293,1.17E-02
100.294,1.18E-02
100.295,1.18E-02
100.29601,1.18E-02
100.297,1.18E-02
100.298,1.18E-02
100.299,1.18E-02
100.3,1.18E-02
100.301,1.18E-02
100.302,1.17E-02
100.303,1.16E-02
100.304,1.15E-02
100.305,1.14E-02
100.306,1.12E-02
100.307,1.10E-02
100.308,1.08E-02
100.309,1.06E-02
100.31001,1.03E-02
100.311,9.97E-03
100.312,9.64E-03
100.313,9.29E-03
100.314,8.72E-03
100.315,8.00E-03
100.316,7.34E-03
100.317,6.79E-03
100.318,6.36E-03
100.319,6.09E-03
100.32,5.97E-03
100.321,6.00E-03
100.322,6.15E-03
100.323,6.44E-03
100.32401,6.85E-03
100.325,7.38E-03
100.326,8.01E-03
100.327,8.72E-03
100.328,9.41E-03
100.329,9.87E-03
100.33,9.84E-03
100.331,9.65E-03
100.332,9.30E-03
100.333,8.83E-03
100.334,8.33E-03
100.335,7.87E-03
100.336,7.48E-03
100.337,7.14E-03
100.33801,7.10E-03
100.339,7.36E-03
100.34,7.83E-03
100.341,8.39E-03
100.342,8.84E-03
100.343,8.88E-03
100.344,8.67E-03
100.345,8.20E-03
100.346,7.56E-03
100.347,6.96E-03
100.348,6.59E-03
100.349,6.57E-03
100.35,6.89E-03
100.351,7.37E-03
100.35201,7.78E-03
100.353,7.90E-03
100.354,7.63E-03
100.355,7.01E-03
100.356,6.26E-03
100.357,5.71E-03
100.358,5.66E-03
100.359,6.09E-03
100.36,6.66E-03
100.361,6.95E-03
100.362,6.74E-03
100.363,6.03E-03
100.364,5.17E-03
100.365,4.73E-03
100.366,5.03E-03
100.367,5.61E-03
100.368,5.94E-03
100.369,5.86E-03
100.37,4.92E-03
100.371,4.03E-03
100.372,4.03E-03
100.373,4.50E-03
100.374,5.10E-03
100.375,5.12E-03
100.376,3.96E-03
100.377,0.003141786
100.378,3.25E-03
100.379,4.09E-03
100.38,4.72E-03
100.381,3.57E-03
100.382,2.45E-03
100.383,2.42E-03
100.384,3.60E-03
100.385,4.09E-03
100.386,2.49E-03
100.387,1.41E-03
100.388,2.30E-03
100.389,3.76E-03
100.39,2.58E-03
100.391,7.60E-04
100.392,1.43E-03
100.39301,3.33E-03
100.394,2.18E-03
100.395,5.70E-06
100.396,1.17E-03
100.397,3.24E-03
100.398,8.68E-04
100.399,-6.77E-04
100.4,2.00E-03
,1.20E-02
,-1.16E-02
