Structure Acceleration, RAO-Based Response
Line A: Structure Acceleration, RAO-Based Response - Global RY (Trimaran) [?s²]
,
*Time (s),Line A (?s?
102.3,0.151453257
102.301,0.151460826
102.302,0.151467934
102.303,0.151474774
102.304,0.151481137
102.305,0.151487023
102.306,0.151492715
102.30701,0.151497796
102.30801,0.151503235
102.30901,0.15150781
102.31001,0.151512071
102.311,0.151516199
102.312,0.151520014
102.313,0.151523814
102.314,0.151525736
102.315,0.151528925
102.316,0.151531234
102.317,0.151533365
102.318,0.151534989
102.319,0.151536003
102.32,0.151536986
102.32101,0.151537329
102.32201,0.151538387
102.32301,0.15153867
102.32401,0.151537672
102.325,0.151536822
102.326,0.151535645
102.327,0.151534632
102.328,0.151532531
102.329,0.15153113
102.33,0.151527539
102.331,0.15152514
102.332,0.151521847
102.333,0.151518881
102.334,0.151514024
102.33501,0.151510641
102.33601,0.151505709
102.33701,0.151501417
102.33801,0.151495963
102.339,0.151491195
102.34,0.151484206
102.341,0.151478335
102.342,0.151471928
102.343,0.151465267
102.344,0.151457548
102.345,0.151449978
102.346,0.151441976
102.347,0.151433885
102.348,0.151424915
102.34901,0.151416346
102.35001,0.151406869
102.35101,0.151397228
102.35201,0.151386678
102.353,0.151376784
102.354,0.151366025
102.355,0.151354909
102.356,0.151343286
102.357,0.151332065
102.358,0.151319981
102.359,0.151307985
102.36,0.15129441
102.361,0.151281565
102.362,0.151268169
102.36301,0.15125449
102.36401,0.151240885
102.36501,0.151226446
102.366,0.151210904
102.367,0.15119639
102.368,0.151180923
102.369,0.151165217
102.37,0.15114896
102.371,0.151132435
102.372,0.151115507
102.373,0.1510984
102.374,0.151081204
102.375,0.151062906
102.376,0.151045114
102.37701,0.15102607
102.37801,0.151006952
102.37901,0.150987744
102.38,0.150968507
102.381,0.150948122
102.382,0.150927722
102.383,0.150907218
102.384,0.150886446
102.385,0.150865465
102.386,0.150842935
102.387,0.150821671
102.388,0.150799602
102.389,0.150776684
102.39,0.150754035
102.39101,0.150730237
102.39201,0.15070565
102.39301,0.150682226
102.394,0.150657624
102.395,0.150633216
102.396,0.150607392
102.397,0.150582254
102.398,0.150556281
102.399,0.150530428
102.4,0.150504559
102.401,0.150476828
102.402,0.150449887
102.403,0.150422543
102.404,0.1503952
102.40501,0.150366366
102.40601,0.15033786
102.40701,0.150308415
102.408,0.150279045
102.409,0.150250047
102.41,0.150220022
102.411,0.150189832
102.412,0.15015848
102.413,0.150127769
102.414,0.150096267
102.415,0.150064081
102.416,0.150032252
102.417,0.149999246
102.418,0.149966687
102.41901,0.149933144
102.42001,0.149899513
102.42101,0.149865463
102.422,0.149831161
102.423,0.149796188
102.424,0.149761438
102.425,0.149726272
102.426,0.149690539
102.427,0.14965345
102.428,0.149617031
102.429,0.14958021
102.43,0.149543315
102.431,0.149505138
102.43201,0.149467289
102.43301,0.149427801
102.43401,0.149389282
102.43501,0.149350151
102.436,0.149310455
102.437,0.149269477
102.438,0.149229392
102.439,0.149188221
102.44,0.149147242
102.441,0.149105117
102.442,0.149062738
102.443,0.149019673
102.444,0.148976594
102.445,0.14893344
102.44601,0.148888707
102.44701,0.148844019
102.44801,0.1487986
102.44901,0.148752704
102.45,0.148706913
102.451,0.148660049
102.452,0.148612842
102.453,0.148564234
102.454,0.14851594
102.455,0.148466796
102.456,0.148416907
102.457,0.148365945
102.458,0.14831461
102.459,0.148262292
102.46001,0.148209766
102.46101,0.148155004
102.46201,0.148100555
102.46301,0.148043185
102.464,0.147986487
102.465,0.147927344
102.466,0.1478668
102.467,0.147804499
102.468,0.147738963
102.469,0.147671357
102.47,0.147601068
102.471,0.147526413
102.472,0.147447169
102.473,0.147359759
102.47401,0.147265077
102.47501,0.147157609
102.47601,0.147033527
102.47701,0.146882504
102.478,0.1466887
102.479,0.146418288
102.48,0.146001369
102.481,0.145230129
102.482,0.143343568
102.483,0.134960651
102.484,-2.27E-02
102.485,-0.141928241
102.486,-0.146373898
102.487,-0.146937147
102.48801,-0.146935478
102.48901,-0.146787956
102.49001,-0.146626115
102.491,-0.146491185
102.492,-0.146389052
102.493,-0.146313787
102.494,-0.146259174
102.495,-0.14622049
102.496,-0.146193266
102.497,-0.146172464
102.498,-0.146155104
102.499,-0.146137595
102.5,-0.14611946
102.501,-0.146096274
102.50201,-0.146067157
102.50301,-0.1460291
102.50401,-0.14597933
102.505,-0.145923078
102.506,-0.145862713
102.507,-0.145800233
102.508,-0.145737261
102.509,-0.145674407
102.51,-0.145611495
102.511,-0.145549297
102.512,-0.14548704
102.513,-0.145424679
102.514,-0.145360038
102.515,-0.145295918
102.51601,-0.145229205
102.51701,-0.145162135
102.51801,-0.145096377
102.519,-0.145029351
102.52,-0.144962773
102.521,-0.144896209
102.522,-0.144828707
102.523,-0.144760042
102.524,-0.14468725
102.525,-0.144613415
102.526,-0.144533634
102.527,-0.144451499
102.528,-0.144368455
102.529,-0.144287467
102.53001,-0.144208118
102.53101,-0.144134
102.53201,-0.14406243
102.533,-0.143996343
102.534,-0.143934533
102.535,-0.143879235
102.536,-0.143829599
102.537,-0.143784985
102.538,-0.143736228
102.539,-0.143679291
102.54,-0.143596083
102.541,-0.143521056
102.542,-0.143452033
102.543,-0.143383399
102.54401,-0.143288746
102.54501,-0.143186182
102.54601,-0.14307797
102.547,-0.142972797
102.548,-0.142872974
102.549,-0.142779976
102.55,-0.1426927
102.551,-0.142614201
102.552,-0.142542034
102.553,-0.14247866
102.554,-0.142422229
102.555,-0.14237158
102.556,-0.142322496
102.55701,-0.142262116
102.55801,-0.142187804
102.55901,-0.142096505
102.56001,-0.141979888
102.561,-0.141807675
102.562,-0.141415238
102.563,-0.134155795
102.564,0.141250387
102.565,0.141554728
102.566,0.141472682
102.567,0.141367465
102.568,0.141261071
102.569,0.14115648
102.57,0.141053155
102.57101,0.140952304
102.57201,0.14085272
102.57301,0.140755907
102.57401,0.140659243
102.575,0.140563205
102.576,0.140468463
102.577,0.140374631
102.578,0.140281603
102.579,0.140189454
102.58,0.140097484
102.581,0.140005648
102.582,0.139914036
102.583,0.139823958
102.584,0.139733002
102.58501,0.139641479
102.58601,0.13955085
102.58701,0.139460653
102.58801,0.139370352
102.589,0.139280856
102.59,0.139189571
102.591,0.139098898
102.592,0.139007419
102.593,0.138917252
102.594,0.138826177
102.595,0.138735011
102.596,0.138643458
102.597,0.138551295
102.598,0.138459757
102.59901,0.138367265
102.60001,0.138274491
102.60101,0.138182819
102.60201,0.138089597
102.603,0.137998104
102.604,0.137905777
102.605,0.137814388
102.606,0.13772206
102.607,0.137630761
102.608,0.137540579
102.609,0.137451425
102.61,0.137362182
102.611,0.137273461
102.612,0.137186706
102.61301,0.137099937
102.61401,0.137015477
102.61501,0.136933655
102.616,0.136852771
102.617,0.136773378
102.618,0.136697814
102.619,0.136623234
102.62,0.136550233
102.621,0.136479124
102.622,0.13640742
102.623,0.13633278
102.624,0.136245057
102.625,0.136113271
102.626,0.135807008
102.62701,0.134324804
102.62801,0.076421708
102.62901,-0.131867006
102.63,-0.134904295
102.631,-0.135313869
102.632,-0.135362089
102.633,-0.13531439
102.634,-0.13523446
102.635,-0.135137528
102.636,-0.135032907
102.637,-0.134920865
102.638,-0.134804204
102.639,-0.134682357
102.64,-0.134555012
102.64101,-0.134422049
102.64201,-0.134284168
102.64301,-0.134138465
102.644,-0.133988544
102.645,-0.133830383
102.646,-0.133666977
102.647,-0.13349472
102.648,-0.133315608
102.649,-0.13312842
102.65,-0.132932216
102.651,-0.132729366
102.652,-0.132533029
102.653,-0.1323466
102.654,-0.13217324
102.65501,-0.132009268
102.65601,-0.131860271
102.65701,-0.131722257
102.658,-0.131594986
102.659,-0.131479055
102.66,-0.131374568
102.661,-0.131278828
102.662,-0.131192967
102.663,-0.131113037
102.664,-0.13104102
102.665,-0.130971476
102.666,-0.130903959
102.667,-0.130831346
102.668,-0.13074401
102.66901,-0.130618691
102.67001,-0.13037613
102.67101,-0.129456967
102.672,0.11610955
102.673,0.130961999
102.674,0.130501673
102.675,0.13011542
102.676,0.129765153
102.677,0.129424229
102.678,0.129080653
102.679,0.128728241
102.68,0.128361642
102.681,0.127976611
102.68201,0.127569422
102.68301,0.127139136
102.68401,0.126684472
102.68501,0.12620692
102.686,0.125706777
102.687,0.125189617
102.688,0.124661118
102.689,0.124134019
102.69,0.123619072
102.691,0.123132825
102.692,0.122696839
102.693,0.122329399
102.694,0.122057818
102.695,0.121903189
102.69601,0.12188518
102.69701,0.122022957
102.69801,0.122322977
102.69901,0.122781403
102.7,0.123382725
102.701,0.124091066
102.702,0.124857046
102.703,0.125608504
102.704,0.12626715
102.705,0.126750603
102.706,0.126989558
102.707,0.126950264
102.708,0.126175284
102.709,0.125177577
102.71001,0.124091506
102.71101,0.123093858
102.71201,0.122369334
102.71301,0.122072637
102.714,0.122283548
102.715,0.121969916
102.716,0.121122077
102.717,0.120357342
102.718,0.119520694
102.719,0.118524544
102.72,0.117447048
102.721,0.116556942
102.722,0.116231702
102.723,0.116796106
102.72401,0.118329585
102.72501,0.120535389
102.72601,0.122761741
102.72701,0.122460894
102.728,0.12106812
102.729,0.119458795
102.73,0.118573084
102.731,0.118950203
102.732,0.120266616
102.733,0.121528998
102.734,0.121603958
102.735,0.121059582
102.736,0.12125463
102.737,0.121605426
102.73801,0.120836362
102.73901,0.118579499
102.74001,0.115898639
102.741,0.114963479
102.742,0.116545118
102.743,0.118958056
102.744,0.120267443
102.745,0.120460689
102.746,0.119893476
102.747,0.11752332
102.748,0.113558874
102.749,0.111470975
102.75,0.113498136
102.751,0.116987467
102.75201,0.118680209
102.75301,0.118235007
102.75401,0.114935994
102.755,0.109686419
102.756,0.108266674
102.757,0.112480812
102.758,0.116367124
102.759,0.116497286
102.76,0.112158202
102.761,0.105517291
102.762,0.10578917
102.763,0.112343125
102.764,0.11514549
102.765,0.111457102
102.76601,0.10266231
102.76701,0.102228299
102.76801,0.110896453
102.769,0.113406472
102.77,0.105971031
102.771,9.65E-02
102.772,0.104402594
102.773,0.112346873
102.774,0.106872499
102.775,9.28E-02
102.776,0.100833237
102.777,0.111539885
102.778,0.103175856
102.779,8.73E-02
102.78001,0.10436856
102.78101,0.110821471
102.78201,8.80E-02
102.783,8.76E-02
102.784,0.111961849
102.785,9.88E-02
102.786,7.59E-02
102.787,0.11302992
102.788,0.107679911
102.789,6.59E-02
102.79,0.114578255
102.791,0.112545528
102.792,5.38E-02
102.793,8.46E-02
102.79401,9.81E-02
102.79501,4.80E-02
102.79601,2.05E-02
102.797,5.05E-02
102.798,4.25E-02
102.799,-3.39E-02
102.8,-1.65E-03
,0.15153867
,-0.146937147
