Structure Acceleration, RAO-Based Response
Line A: Structure Acceleration, RAO-Based Response - Global RY (Trimaran) [?s²]
,
*Time (s),Line A (?s?
99.7,8.52E-03
99.701,8.53E-03
99.702,8.54E-03
99.703,8.55E-03
99.70399,8.57E-03
99.70499,8.58E-03
99.70599,8.59E-03
99.707,8.60E-03
99.708,8.62E-03
99.709,8.63E-03
99.71,8.64E-03
99.711,8.66E-03
99.712,8.67E-03
99.713,8.68E-03
99.714,8.69E-03
99.715,8.71E-03
99.716,8.72E-03
99.717,8.73E-03
99.71799,8.74E-03
99.71899,8.76E-03
99.71999,8.77E-03
99.721,8.78E-03
99.722,8.79E-03
99.723,8.81E-03
99.724,8.82E-03
99.725,8.83E-03
99.726,8.84E-03
99.727,8.85E-03
99.728,8.87E-03
99.729,8.88E-03
99.73,8.89E-03
99.731,8.90E-03
99.73199,8.92E-03
99.73299,8.93E-03
99.73399,8.94E-03
99.735,8.95E-03
99.736,8.96E-03
99.737,8.98E-03
99.738,8.99E-03
99.739,9.00E-03
99.74,9.01E-03
99.741,9.02E-03
99.742,9.04E-03
99.743,9.05E-03
99.744,9.06E-03
99.745,9.07E-03
99.74599,9.08E-03
99.74699,9.10E-03
99.74799,9.11E-03
99.749,9.12E-03
99.75,9.13E-03
99.751,9.14E-03
99.752,9.15E-03
99.753,9.17E-03
99.754,9.18E-03
99.755,9.19E-03
99.756,9.20E-03
99.757,9.21E-03
99.758,9.23E-03
99.759,9.24E-03
99.75999,9.25E-03
99.76099,9.26E-03
99.76199,9.27E-03
99.763,9.28E-03
99.764,9.29E-03
99.765,9.31E-03
99.766,9.32E-03
99.767,9.33E-03
99.768,9.34E-03
99.769,9.35E-03
99.77,9.36E-03
99.771,9.37E-03
99.772,9.39E-03
99.77299,9.40E-03
99.77399,9.41E-03
99.77499,9.42E-03
99.77599,9.43E-03
99.777,9.44E-03
99.778,9.45E-03
99.779,9.46E-03
99.78,9.48E-03
99.781,9.49E-03
99.782,9.50E-03
99.783,9.51E-03
99.784,9.52E-03
99.785,9.53E-03
99.786,9.54E-03
99.78699,9.55E-03
99.78799,0.009563317
99.78899,9.57E-03
99.78999,9.59E-03
99.791,9.60E-03
99.792,9.61E-03
99.793,9.62E-03
99.794,0.009628608
99.795,9.64E-03
99.796,9.65E-03
99.797,9.66E-03
99.798,9.67E-03
99.799,9.68E-03
99.8,9.69E-03
99.80099,9.70E-03
99.80199,9.71E-03
99.80299,9.72E-03
99.80399,9.74E-03
99.805,9.75E-03
99.806,9.76E-03
99.807,0.00976721
99.808,9.78E-03
99.809,9.79E-03
99.81,9.80E-03
99.811,9.81E-03
99.812,9.82E-03
99.813,9.83E-03
99.814,9.84E-03
99.81499,9.85E-03
99.81599,9.86E-03
99.81699,9.87E-03
99.81799,9.88E-03
99.819,9.89E-03
99.82,9.90E-03
99.821,9.91E-03
99.822,9.92E-03
99.823,9.93E-03
99.824,9.94E-03
99.825,9.95E-03
99.826,9.96E-03
99.827,9.97E-03
99.828,9.98E-03
99.82899,9.99E-03
99.82999,1.00E-02
99.83099,0.010013135
99.832,1.00E-02
99.833,1.00E-02
99.834,1.00E-02
99.835,0.010053089
99.836,1.01E-02
99.837,1.01E-02
99.838,1.01E-02
99.839,1.01E-02
99.84,0.010102411
99.841,1.01E-02
99.842,0.010121914
99.84299,1.01E-02
99.84399,1.01E-02
99.84499,1.02E-02
99.846,1.02E-02
99.847,1.02E-02
99.848,1.02E-02
99.849,0.010190031
99.85,1.02E-02
99.851,1.02E-02
99.852,0.010218927
99.853,0.01022865
99.854,1.02E-02
99.855,1.02E-02
99.856,0.010257383
99.85699,0.010266881
99.85799,1.03E-02
99.85899,1.03E-02
99.86,1.03E-02
99.861,1.03E-02
99.862,1.03E-02
99.863,1.03E-02
99.864,1.03E-02
99.865,1.03E-02
99.866,1.04E-02
99.867,1.04E-02
99.868,1.04E-02
99.869,1.04E-02
99.87,0.010390998
99.87099,1.04E-02
99.87199,1.04E-02
99.87299,1.04E-02
99.874,0.010429504
99.875,1.04E-02
99.876,1.04E-02
99.877,1.05E-02
99.878,1.05E-02
99.879,1.05E-02
99.88,1.05E-02
99.881,0.010460895
99.882,1.04E-02
99.883,9.79E-03
99.884,-4.67E-03
99.88499,-9.99E-03
99.88599,-1.04E-02
99.88699,-1.05E-02
99.888,-1.05E-02
99.889,-1.05E-02
99.89,-1.05E-02
99.891,-1.06E-02
99.892,-1.06E-02
99.893,-1.06E-02
99.894,-1.06E-02
99.895,-1.06E-02
99.896,-1.06E-02
99.897,-1.06E-02
99.89799,-1.06E-02
99.89899,-1.06E-02
99.89999,-1.06E-02
99.90099,-1.06E-02
99.902,-1.06E-02
99.903,-1.06E-02
99.904,-1.06E-02
99.905,-1.06E-02
99.906,-1.06E-02
99.907,-1.06E-02
99.908,-1.07E-02
99.909,-0.010664964
99.91,-1.07E-02
99.911,-1.07E-02
99.91199,-1.07E-02
99.91299,-1.07E-02
99.91399,-1.07E-02
99.91499,-1.07E-02
99.916,-1.07E-02
99.917,-1.08E-02
99.918,-1.08E-02
99.919,-0.010777436
99.92,-1.08E-02
99.921,-1.08E-02
99.922,-1.08E-02
99.923,-1.08E-02
99.924,-1.08E-02
99.925,-1.08E-02
99.92599,-1.08E-02
99.92699,-1.08E-02
99.92799,-1.08E-02
99.92899,-1.08E-02
99.93,-1.08E-02
99.931,-1.08E-02
99.932,-1.08E-02
99.933,-1.08E-02
99.934,-1.09E-02
99.935,-1.09E-02
99.936,-1.09E-02
99.937,-1.09E-02
99.938,-1.09E-02
99.939,-0.010906451
99.93999,-1.09E-02
99.94099,-1.09E-02
99.94199,-0.010915176
99.94299,-1.09E-02
99.944,-0.010924214
99.945,-1.09E-02
99.946,-1.09E-02
99.947,-1.10E-02
99.948,-1.10E-02
99.949,-1.10E-02
99.95,-1.10E-02
99.951,-1.10E-02
99.952,-1.10E-02
99.953,-1.10E-02
99.95399,-1.10E-02
99.95499,-1.10E-02
99.95599,-1.10E-02
99.957,-1.10E-02
99.958,-1.10E-02
99.959,-1.11E-02
99.96,-0.01106573
99.961,-1.11E-02
99.962,-1.11E-02
99.963,-1.10E-02
99.964,1.10E-02
99.965,1.11E-02
99.966,1.11E-02
99.967,1.11E-02
99.96799,1.11E-02
99.96899,1.12E-02
99.96999,1.12E-02
99.971,0.011167986
99.972,1.12E-02
99.973,0.011175437
99.974,0.011179244
99.975,1.12E-02
99.976,1.12E-02
99.977,1.12E-02
99.978,1.12E-02
99.979,1.12E-02
99.98,1.12E-02
99.981,1.12E-02
99.98199,1.12E-02
99.98299,1.12E-02
99.98399,1.12E-02
99.985,1.12E-02
99.986,1.12E-02
99.987,1.12E-02
99.988,1.12E-02
99.989,1.13E-02
99.99,1.13E-02
99.991,1.13E-02
99.992,1.13E-02
99.993,0.011271452
99.994,1.13E-02
99.995,0.011282199
99.99599,1.13E-02
99.99699,1.13E-02
99.99799,1.13E-02
99.999,1.13E-02
100,1.13E-02
100.001,1.13E-02
100.002,1.13E-02
100.003,1.13E-02
100.004,0.011330048
100.005,0.011335127
100.006,1.13E-02
100.007,1.13E-02
100.008,1.13E-02
100.009,1.14E-02
100.00999,1.14E-02
100.01099,1.14E-02
100.01199,1.14E-02
100.013,1.14E-02
100.014,0.011376379
100.015,1.14E-02
100.016,1.14E-02
100.017,1.14E-02
100.018,1.14E-02
100.019,1.14E-02
100.02,1.14E-02
100.021,1.14E-02
100.022,1.14E-02
100.02299,1.14E-02
100.02399,0.011326477
100.02499,1.12E-02
100.02599,1.10E-02
100.027,9.71E-03
100.028,-1.88E-03
100.029,-1.03E-02
100.03,-1.12E-02
100.031,-1.14E-02
100.032,-1.15E-02
100.033,-0.011501046
100.034,-1.15E-02
100.035,-1.15E-02
100.036,-1.15E-02
100.03699,-1.15E-02
100.03799,-1.15E-02
100.03899,-1.15E-02
100.03999,-1.15E-02
100.041,-1.15E-02
100.042,-1.14E-02
100.043,-1.14E-02
100.044,-1.14E-02
100.045,-1.15E-02
100.046,-1.15E-02
100.047,-1.15E-02
100.048,-1.15E-02
100.049,-1.15E-02
100.05,-1.15E-02
100.05099,-1.15E-02
100.05199,-1.15E-02
100.05299,-1.15E-02
100.05399,-1.15E-02
100.055,-1.15E-02
100.056,-1.16E-02
100.057,-1.16E-02
100.058,-1.16E-02
100.059,-1.16E-02
100.06,-1.16E-02
100.061,-1.16E-02
100.062,-1.16E-02
100.063,-1.16E-02
100.064,-1.15E-02
100.06499,-1.15E-02
100.06599,-1.14E-02
100.06699,-1.13E-02
100.06799,-0.011057723
100.069,-1.05E-02
100.07,-8.69E-03
100.071,1.35E-04
100.072,9.64E-03
100.073,1.12E-02
100.074,1.15E-02
100.075,1.16E-02
100.076,1.17E-02
100.077,1.17E-02
100.078,1.17E-02
100.07899,1.17E-02
100.07999,1.17E-02
100.08099,1.17E-02
100.082,1.17E-02
100.083,1.17E-02
100.084,1.17E-02
100.085,1.17E-02
100.086,1.17E-02
100.087,1.17E-02
100.088,1.17E-02
100.089,1.17E-02
100.09,1.17E-02
100.091,1.17E-02
100.092,1.17E-02
100.09299,1.17E-02
100.09399,0.011695989
100.09499,1.17E-02
100.096,1.17E-02
100.097,1.17E-02
100.098,1.17E-02
100.099,0.011697325
100.1,1.17E-02
100.101,1.17E-02
100.102,1.17E-02
100.103,1.17E-02
100.104,1.17E-02
100.105,1.17E-02
100.106,1.18E-02
100.10699,1.18E-02
100.10799,1.17E-02
100.10899,1.17E-02
100.11,1.16E-02
100.111,1.15E-02
100.112,1.14E-02
100.113,1.12E-02
100.114,1.11E-02
100.115,1.09E-02
100.116,1.07E-02
100.117,1.06E-02
100.118,1.04E-02
100.119,1.01E-02
100.12,9.80E-03
100.12099,9.53E-03
100.12199,9.33E-03
100.12299,9.23E-03
100.124,9.20E-03
100.125,9.23E-03
100.126,9.33E-03
100.127,9.47E-03
100.128,9.66E-03
100.129,9.90E-03
100.13,1.02E-02
100.131,1.05E-02
100.132,1.08E-02
100.133,1.07E-02
100.134,1.05E-02
100.13499,1.03E-02
100.13599,0.00999148
100.13699,9.71E-03
100.138,9.51E-03
100.139,0.009436528
100.14,9.47E-03
100.141,9.52E-03
100.142,9.69E-03
100.143,9.93E-03
100.144,1.02E-02
100.145,1.02E-02
100.146,1.00E-02
100.147,9.75E-03
100.14799,9.34E-03
100.14899,8.91E-03
100.14999,8.61E-03
,1.18E-02
,-1.16E-02
