Structure Acceleration, RAO-Based Response
Line A: Structure Acceleration, RAO-Based Response - Global RY (Trimaran) [?s²]
,
*Time (s),Line A (?s?
99.9,6.98E-03
99.901,7.01E-03
99.902,7.03E-03
99.903,7.06E-03
99.904,7.08E-03
99.905,7.11E-03
99.906,7.13E-03
99.90701,7.15E-03
99.908,7.18E-03
99.909,7.20E-03
99.91,7.23E-03
99.911,7.25E-03
99.912,7.28E-03
99.913,7.30E-03
99.914,7.33E-03
99.915,7.35E-03
99.916,7.38E-03
99.917,7.40E-03
99.918,7.43E-03
99.919,7.45E-03
99.92,7.48E-03
99.92101,7.50E-03
99.922,7.52E-03
99.923,7.55E-03
99.924,7.57E-03
99.925,7.60E-03
99.926,7.62E-03
99.927,7.65E-03
99.928,7.67E-03
99.929,7.69E-03
99.93,7.72E-03
99.931,7.74E-03
99.932,7.77E-03
99.933,7.79E-03
99.934,7.82E-03
99.93501,7.84E-03
99.936,7.86E-03
99.937,7.89E-03
99.938,7.91E-03
99.939,7.94E-03
99.94,7.96E-03
99.941,7.98E-03
99.942,8.01E-03
99.943,8.03E-03
99.944,8.06E-03
99.945,8.08E-03
99.946,8.10E-03
99.947,8.13E-03
99.948,8.15E-03
99.94901,8.18E-03
99.95,8.20E-03
99.951,8.22E-03
99.952,8.25E-03
99.953,8.27E-03
99.954,8.29E-03
99.955,8.32E-03
99.956,8.34E-03
99.957,8.36E-03
99.958,8.39E-03
99.959,8.41E-03
99.96,8.43E-03
99.961,8.46E-03
99.962,8.48E-03
99.96301,8.51E-03
99.964,8.53E-03
99.965,8.55E-03
99.966,8.58E-03
99.967,8.60E-03
99.968,8.62E-03
99.969,8.65E-03
99.97,8.67E-03
99.971,8.69E-03
99.972,8.71E-03
99.973,8.74E-03
99.974,8.76E-03
99.975,8.78E-03
99.976,8.81E-03
99.97701,8.83E-03
99.978,8.85E-03
99.979,8.88E-03
99.98,8.90E-03
99.981,8.92E-03
99.982,8.94E-03
99.983,8.97E-03
99.984,8.99E-03
99.985,9.01E-03
99.986,9.04E-03
99.987,9.06E-03
99.988,9.08E-03
99.989,9.10E-03
99.99,9.13E-03
99.991,9.15E-03
99.992,9.17E-03
99.993,9.19E-03
99.994,9.22E-03
99.995,9.24E-03
99.996,9.26E-03
99.997,9.28E-03
99.998,9.31E-03
99.999,9.33E-03
100,9.35E-03
100.001,9.37E-03
100.002,9.40E-03
100.003,9.42E-03
100.004,9.44E-03
100.005,9.46E-03
100.006,9.49E-03
100.007,9.51E-03
100.008,9.53E-03
100.009,9.55E-03
100.01,9.57E-03
100.011,9.60E-03
100.012,9.62E-03
100.013,9.64E-03
100.014,9.66E-03
100.015,9.68E-03
100.016,9.71E-03
100.017,9.73E-03
100.018,9.75E-03
100.019,9.77E-03
100.02,9.79E-03
100.021,9.82E-03
100.022,9.84E-03
100.023,9.86E-03
100.024,9.88E-03
100.025,9.90E-03
100.026,9.92E-03
100.027,9.95E-03
100.028,9.97E-03
100.029,9.99E-03
100.03,1.00E-02
100.031,1.00E-02
100.03201,1.01E-02
100.033,1.01E-02
100.034,1.01E-02
100.035,1.01E-02
100.036,1.01E-02
100.037,1.02E-02
100.038,1.02E-02
100.039,1.02E-02
100.04,1.02E-02
100.041,1.02E-02
100.042,1.03E-02
100.043,1.03E-02
100.044,1.03E-02
100.045,1.03E-02
100.04601,1.04E-02
100.047,1.04E-02
100.048,1.04E-02
100.049,1.04E-02
100.05,0.0104406
100.051,0.010461907
100.052,1.05E-02
100.053,1.05E-02
100.054,1.05E-02
100.055,1.05E-02
100.056,1.06E-02
100.057,1.06E-02
100.058,1.06E-02
100.059,1.06E-02
100.06001,1.07E-02
100.061,1.07E-02
100.062,1.07E-02
100.063,1.07E-02
100.064,1.07E-02
100.065,1.08E-02
100.066,1.08E-02
100.067,1.08E-02
100.068,1.08E-02
100.069,1.09E-02
100.07,1.09E-02
100.071,1.09E-02
100.072,1.09E-02
100.073,1.09E-02
100.07401,1.10E-02
100.075,1.10E-02
100.076,1.10E-02
100.077,1.11E-02
100.078,1.11E-02
100.079,1.11E-02
100.08,1.12E-02
100.081,1.12E-02
100.082,1.12E-02
100.083,1.06E-02
100.084,-6.22E-03
100.085,-1.04E-02
100.086,-1.09E-02
100.087,-1.10E-02
100.08801,-1.11E-02
100.089,-1.12E-02
100.09,-1.12E-02
100.091,-1.13E-02
100.092,-1.13E-02
100.093,-1.13E-02
100.094,-1.13E-02
100.095,-1.13E-02
100.096,-1.13E-02
100.097,-1.13E-02
100.098,-1.13E-02
100.099,-1.14E-02
100.1,-1.14E-02
100.101,-1.14E-02
100.10201,-1.14E-02
100.103,-1.14E-02
100.104,-1.14E-02
100.105,-1.14E-02
100.106,-1.14E-02
100.107,-1.15E-02
100.108,-0.011496834
100.109,-1.15E-02
100.11,-1.16E-02
100.111,-0.011575187
100.112,-1.16E-02
100.113,-1.16E-02
100.114,-1.16E-02
100.115,-1.17E-02
100.116,-1.17E-02
100.117,-1.17E-02
100.118,-1.17E-02
100.119,-1.17E-02
100.12,-1.17E-02
100.121,-1.17E-02
100.122,-1.18E-02
100.123,-1.18E-02
100.124,-1.18E-02
100.125,-1.18E-02
100.126,-1.18E-02
100.127,-1.19E-02
100.128,-1.19E-02
100.129,-1.19E-02
100.13,-1.19E-02
100.131,-1.19E-02
100.132,-1.19E-02
100.133,-1.20E-02
100.134,-1.20E-02
100.135,-0.011987722
100.136,-1.20E-02
100.137,-1.20E-02
100.138,-1.21E-02
100.139,-1.21E-02
100.14,-1.21E-02
100.141,-1.21E-02
100.142,-1.21E-02
100.143,-1.21E-02
100.144,-1.21E-02
100.145,-1.22E-02
100.146,-1.22E-02
100.147,-1.22E-02
100.148,-1.22E-02
100.149,-1.22E-02
100.15,-1.22E-02
100.151,-1.23E-02
100.152,-1.23E-02
100.153,-1.23E-02
100.154,-1.23E-02
100.155,-0.01232437
100.156,-1.23E-02
100.15701,-1.24E-02
100.158,-1.24E-02
100.159,-1.24E-02
100.16,-1.24E-02
100.161,-1.24E-02
100.162,-1.23E-02
100.163,-1.20E-02
100.164,1.26E-02
100.165,1.25E-02
100.166,1.25E-02
100.167,1.25E-02
100.168,1.25E-02
100.169,1.25E-02
100.17,1.25E-02
100.17101,1.25E-02
100.172,1.25E-02
100.173,1.25E-02
100.174,1.25E-02
100.175,1.26E-02
100.176,1.26E-02
100.177,0.012579707
100.178,1.26E-02
100.179,1.26E-02
100.18,1.26E-02
100.181,1.26E-02
100.182,1.27E-02
100.183,1.27E-02
100.184,1.27E-02
100.18501,1.27E-02
100.186,1.27E-02
100.187,1.27E-02
100.188,1.27E-02
100.189,1.28E-02
100.19,0.012773061
100.191,1.28E-02
100.192,0.012803896
100.193,0.012819211
100.194,1.28E-02
100.195,1.28E-02
100.196,1.29E-02
100.197,1.29E-02
100.198,1.29E-02
100.19901,1.29E-02
100.2,1.29E-02
100.201,1.29E-02
100.202,1.30E-02
100.203,1.30E-02
100.204,1.30E-02
100.205,1.30E-02
100.206,1.30E-02
100.207,1.30E-02
100.208,0.013061237
100.209,1.31E-02
100.21,1.31E-02
100.211,0.013120674
100.212,1.31E-02
100.21301,1.32E-02
100.214,1.32E-02
100.215,1.32E-02
100.216,1.32E-02
100.217,1.33E-02
100.218,1.33E-02
100.219,0.013337143
100.22,1.34E-02
100.221,1.34E-02
100.222,1.35E-02
100.223,1.35E-02
100.224,1.36E-02
100.225,1.36E-02
100.226,1.37E-02
100.22701,1.32E-02
100.228,-8.85E-03
100.229,-1.27E-02
100.23,-1.31E-02
100.231,-1.33E-02
100.232,-1.34E-02
100.233,-1.35E-02
100.234,-1.35E-02
100.235,-1.35E-02
100.236,-1.36E-02
100.237,-1.36E-02
100.238,-1.36E-02
100.239,-1.36E-02
100.24,-1.36E-02
100.241,-1.36E-02
100.242,-1.36E-02
100.243,-1.36E-02
100.244,-1.36E-02
100.245,-1.36E-02
100.246,-1.36E-02
100.247,-1.36E-02
100.248,-1.36E-02
100.249,-1.36E-02
100.25,-0.013527232
100.251,-1.35E-02
100.252,-1.35E-02
100.253,-1.34E-02
100.254,-1.34E-02
100.255,-1.34E-02
100.256,-1.33E-02
100.257,-1.33E-02
100.258,-1.33E-02
100.259,-1.32E-02
100.26,-1.32E-02
100.261,-1.32E-02
100.262,-1.32E-02
100.263,-1.32E-02
100.264,-1.32E-02
100.265,-1.33E-02
100.266,-0.013288033
100.267,-1.33E-02
100.26801,-1.34E-02
100.269,-1.36E-02
100.27,-1.42E-02
100.271,0.012624373
100.272,1.31E-02
100.273,1.32E-02
100.274,0.013246807
100.275,0.013286879
100.276,0.013323956
100.277,1.34E-02
100.278,1.34E-02
100.279,1.34E-02
100.28,1.35E-02
100.281,1.35E-02
100.28201,1.36E-02
100.283,1.37E-02
100.284,1.37E-02
100.285,1.38E-02
100.286,1.38E-02
100.287,1.39E-02
100.288,1.39E-02
100.289,1.40E-02
100.29,1.40E-02
100.291,1.41E-02
100.292,1.41E-02
100.293,1.41E-02
100.294,1.41E-02
100.295,1.41E-02
100.29601,0.014085122
100.297,1.40E-02
100.298,1.40E-02
100.299,1.39E-02
100.3,1.38E-02
100.301,1.36E-02
100.302,1.35E-02
100.303,1.32E-02
100.304,1.30E-02
100.305,1.27E-02
100.306,0.012323628
100.307,1.19E-02
100.308,1.15E-02
100.309,1.10E-02
100.31001,0.010579334
100.311,1.01E-02
100.312,9.26E-03
100.313,8.46E-03
100.314,7.75E-03
100.315,7.19E-03
100.316,6.79E-03
100.317,6.57E-03
100.318,6.53E-03
100.319,6.64E-03
100.32,6.91E-03
100.321,7.32E-03
100.322,7.86E-03
100.323,8.51E-03
100.32401,9.28E-03
100.325,1.01E-02
100.326,1.10E-02
100.327,1.17E-02
100.328,1.17E-02
100.329,1.15E-02
100.33,1.10E-02
100.331,1.04E-02
100.332,9.64E-03
100.333,8.91E-03
100.334,8.36E-03
100.335,7.82E-03
100.336,7.67E-03
100.337,7.93E-03
100.33801,8.52E-03
100.339,9.31E-03
100.34,1.01E-02
100.341,1.06E-02
100.342,1.05E-02
100.343,1.01E-02
100.344,9.32E-03
100.345,8.33E-03
100.346,7.45E-03
100.347,6.98E-03
100.348,7.09E-03
100.349,7.72E-03
100.35,8.56E-03
,1.41E-02
,-1.42E-02
