Structure Acceleration, RAO-Based Response
Line A: Structure Acceleration, RAO-Based Response - Global RY (Trimaran) [°/s²]

*Time (s),Line A (°/s²)
99.9,5.25014363229275E-02
99.901,5.24940639734268E-02
99.902,5.24865426123142E-02
99.903,5.24786747992039E-02
99.904,5.24709932506084E-02
99.905,5.24631626904011E-02
99.906,5.24549372494221E-02
99.90701,.052446860820055
99.908,5.24383895099163E-02
99.909,5.24299964308739E-02
99.91,5.24214208126068E-02
99.911,5.24126514792442E-02
99.912,5.24040535092354E-02
99.913,5.23953028023243E-02
99.914,5.23862615227699E-02
99.915,5.23770563304424E-02
99.916,5.23679777979851E-02
99.917,5.23585416376591E-02
99.918,5.23492619395256E-02
99.919,5.23399114608765E-02
99.92,5.23300990462303E-02
99.92101,5.23202605545521E-02
99.922,5.23103661835194E-02
99.923,5.23005612194538E-02
99.924,5.22905886173248E-02
99.925,5.22801578044891E-02
99.926,5.22698685526848E-02
99.927,5.22595159709454E-02
99.928,5.22487834095955E-02
99.929,5.22381514310837E-02
99.93,5.22274635732174E-02
99.931,5.22166006267071E-02
99.932,5.22056370973587E-02
99.933,.052194606512785
99.934,5.21830953657627E-02
99.93501,5.21718859672546E-02
99.936,5.21602593362331E-02
99.937,5.21488711237907E-02
99.938,5.21372929215431E-02
99.939,5.21253235638142E-02
99.94,5.21134920418262E-02
99.941,5.21014891564846E-02
99.942,5.20893260836601E-02
99.943,5.20771704614163E-02
99.944,5.20649142563343E-02
99.945,5.20524755120277E-02
99.946,5.20400330424309E-02
99.947,5.20273372530937E-02
99.948,5.20143061876297E-02
99.94901,5.20015880465508E-02
99.95,5.19882775843144E-02
99.951,5.19751273095608E-02
99.952,5.19619919359684E-02
99.953,5.19485771656036E-02
99.954,5.19352033734322E-02
99.955,5.19216358661652E-02
99.956,5.19078224897385E-02
99.957,5.18942512571812E-02
99.958,5.18803969025612E-02
99.959,.05186627805233
99.96,5.18521517515182E-02
99.961,5.18381334841251E-02
99.962,5.18235489726067E-02
99.96301,5.18091581761837E-02
99.964,5.17944805324078E-02
99.965,5.17799966037273E-02
99.966,5.17651177942753E-02
99.967,5.17502278089523E-02
99.968,5.17350770533085E-02
99.969,5.17200417816639E-02
99.97,5.17047978937626E-02
99.971,5.16894944012165E-02
99.972,5.16742318868637E-02
99.973,5.16584515571594E-02
99.974,5.16427978873253E-02
99.975,5.16270510852337E-02
99.976,5.16111813485622E-02
99.97701,5.15950247645378E-02
99.978,5.15788532793522E-02
99.979,.051562711596489
99.98,5.15464507043362E-02
99.981,5.15300109982491E-02
99.982,5.15135191380978E-02
99.983,.051496971398592
99.984,5.14802858233452E-02
99.985,5.14633804559708E-02
99.986,.051446545869112
99.987,5.14292679727077E-02
99.988,5.14120757579803E-02
99.989,5.13947792351246E-02
99.99,5.13771809637547E-02
99.991,5.13597764074802E-02
99.992,5.13421036303043E-02
99.993,5.13245835900307E-02
99.994,5.13065755367279E-02
99.995,5.12886382639408E-02
99.996,5.12708760797978E-02
99.997,5.12527376413345E-02
99.998,5.12342602014542E-02
99.999,5.12162148952484E-02
100,5.11977896094322E-02
100.001,5.11791706085205E-02
100.002,5.11605441570282E-02
100.003,5.11418618261814E-02
100.004,5.11230751872063E-02
100.005,5.11038415133953E-02
100.006,5.10848164558411E-02
100.007,5.10657541453838E-02
100.008,5.10467663407326E-02
100.009,5.10270483791828E-02
100.01,5.10077960789204E-02
100.011,.050988033413887
100.012,5.09684793651104E-02
100.013,5.09488396346569E-02
100.014,.050929170101881
100.015,5.09091839194298E-02
100.016,5.08893094956875E-02
100.017,5.08692227303982E-02
100.018,5.08488528430462E-02
100.019,5.08285574615002E-02
100.02,5.08082211017609E-02
100.021,5.07878847420216E-02
100.022,5.07675409317017E-02
100.023,5.07467575371265E-02
100.024,5.07261529564857E-02
100.025,5.07054142653942E-02
100.026,5.06845451891422E-02
100.027,5.06636761128902E-02
100.028,5.06424754858017E-02
100.029,5.06213530898094E-02
100.03,5.06002381443977E-02
100.031,5.05791567265987E-02
100.03201,5.05576729774475E-02
100.033,5.05362488329411E-02
100.034,5.05148842930794E-02
100.035,5.04936017096043E-02
100.036,5.04721365869045E-02
100.037,.050450474023819
100.038,5.04287555813789E-02
100.039,5.04073798656464E-02
100.04,5.03853559494019E-02
100.041,5.03636226058006E-02
100.042,5.03419600427151E-02
100.043,.050319992005825
100.044,5.02983145415783E-02
100.045,5.02763465046883E-02
100.04601,5.02541847527027E-02
100.047,5.02324067056179E-02
100.048,5.02103567123413E-02
100.049,5.01880645751953E-02
100.05,5.01662828028202E-02
100.051,5.01442775130272E-02
100.052,5.01225739717484E-02
100.053,5.01007921993732E-02
100.054,5.00787794589996E-02
100.055,5.00571131706238E-02
100.056,5.00354133546352E-02
100.057,5.00136502087116E-02
100.058,4.99923378229141E-02
100.059,4.99711632728577E-02
100.06001,4.99497726559639E-02
100.061,4.99288253486156E-02
100.062,4.99077513813972E-02
100.063,4.98874597251415E-02
100.064,4.98672127723694E-02
100.065,4.98471818864346E-02
100.066,4.98278550803661E-02
100.067,4.98091466724873E-02
100.068,4.97904047369957E-02
100.069,4.97726872563362E-02
100.07,4.97559793293476E-02
100.071,.049740131944418
100.072,4.97256219387054E-02
100.073,.049712810665369
100.07401,4.97015714645386E-02
100.075,4.96929027140141E-02
100.076,4.96870540082455E-02
100.077,4.96844537556171E-02
100.078,4.96858581900597E-02
100.079,4.96897846460342E-02
100.08,4.96883615851402E-02
100.081,.049637958407402
100.082,4.92050051689148E-02
100.083,4.07653972506523E-02
100.084,-.040778998285532
100.085,-4.74189445376396E-02
100.086,-4.84718270599842E-02
100.087,-4.88509386777878E-02
100.08801,-4.90285940468311E-02
100.089,-4.91010248661041E-02
100.09,-4.91219609975815E-02
100.091,-4.91162426769733E-02
100.092,-4.90946397185326E-02
100.093,-4.90619502961636E-02
100.094,-4.90211322903633E-02
100.095,-4.89736199378967E-02
100.096,-.048919603228569
100.097,-4.88598644733429E-02
100.098,-4.87943738698959E-02
100.099,-4.87228408455849E-02
100.1,-4.86455522477627E-02
100.101,-.048565037548542
100.10201,-4.84916903078556E-02
100.103,-4.84294332563877E-02
100.104,-4.83764372766018E-02
100.105,-4.83328402042389E-02
100.106,-4.82976958155632E-02
100.107,-.048269871622324
100.108,-4.82487119734287E-02
100.109,-4.82339560985565E-02
100.11,-4.82244826853275E-02
100.111,-4.82199192047119E-02
100.112,-4.82192300260067E-02
100.113,-4.82197664678097E-02
100.114,-4.82142493128777E-02
100.115,-4.82010096311569E-02
100.116,-4.81809005141258E-02
100.117,-4.81550171971321E-02
100.118,-4.81235422194004E-02
100.119,-4.80869896709919E-02
100.12,-4.80456799268723E-02
100.121,-4.79997098445892E-02
100.122,-.047949742525816
100.123,-4.78971675038338E-02
100.124,-4.78483438491821E-02
100.125,-.04780463129282
100.126,-.047765489667654
100.127,-4.77301478385925E-02
100.128,-4.76985573768616E-02
100.129,-4.76700402796268E-02
100.13,-4.76437658071518E-02
100.131,-4.76194769144058E-02
100.132,-4.75963689386845E-02
100.133,-.047573160380125
100.134,-.047533605247736
100.135,-4.74926941096783E-02
100.136,-4.74532917141914E-02
100.137,-4.74165976047516E-02
100.138,-4.73833493888378E-02
100.139,-4.73547615110874E-02
100.14,-4.73318211734295E-02
100.141,-4.73141632974148E-02
100.142,-4.72846552729607E-02
100.143,-4.72587905824184E-02
100.144,-4.72360365092754E-02
100.145,-4.72150482237339E-02
100.146,-4.71942462027073E-02
100.147,-4.71732281148434E-02
100.148,-4.71511110663414E-02
100.149,-4.71284203231335E-02
100.15,-4.71042580902576E-02
100.151,-.047077801078558
100.152,-4.70485799014568E-02
100.153,-4.70151975750923E-02
100.154,-4.69759814441204E-02
100.155,-4.69280742108822E-02
100.156,-4.68672513961792E-02
100.15701,-4.67844679951668E-02
100.158,-4.66638654470444E-02
100.159,-4.64734397828579E-02
100.16,-4.61615957319736E-02
100.161,-4.55197878181934E-02
100.162,-4.31963354349136E-02
100.163,8.59407242387533E-03
100.164,.046847477555275
100.165,4.71025891602039E-02
100.166,4.69551384449005E-02
100.167,4.68163788318634E-02
100.168,4.67011407017708E-02
100.169,4.66035902500153E-02
100.17,4.65182848274708E-02
100.17101,4.64412905275822E-02
100.172,4.63711470365524E-02
100.173,4.63060922920704E-02
100.174,4.62448485195637E-02
100.175,4.61867228150368E-02
100.176,4.61307428777218E-02
100.177,4.60770465433598E-02
100.178,4.60251867771149E-02
100.179,4.59745973348618E-02
100.18,4.59254719316959E-02
100.181,4.58775758743286E-02
100.182,.045830212533474
100.183,4.57840636372566E-02
100.184,.045738447457552
100.18501,4.56930845975876E-02
100.186,4.56487685441971E-02
100.187,4.56048175692558E-02
100.188,4.55610565841198E-02
100.189,4.55180369317532E-02
100.19,.04547518491745
100.191,4.54327464103699E-02
100.192,4.53903153538704E-02
100.193,4.53481562435627E-02
100.194,4.53062579035759E-02
100.195,4.52643595635891E-02
100.196,4.52225804328918E-02
100.197,4.51810471713543E-02
100.198,4.51395399868488E-02
100.19901,4.50977347791195E-02
100.2,4.50563356280327E-02
100.201,4.50153723359108E-02
100.202,4.49746400117874E-02
100.203,4.49342094361782E-02
100.204,4.48940172791481E-02
100.205,4.48543727397919E-02
100.206,4.48150411248207E-02
100.207,4.47759740054607E-02
100.208,.0447380207479
100.209,.044700987637043
100.21,4.46648709475994E-02
100.211,4.46298271417618E-02
100.212,4.45960983633995E-02
100.21301,4.45636585354805E-02
100.214,4.45333756506443E-02
100.215,4.45051565766335E-02
100.216,4.44800071418285E-02
100.217,4.44578602910042E-02
100.218,4.44399490952492E-02
100.219,4.44275289773941E-02
100.22,4.44227457046509E-02
100.221,4.44289073348045E-02
100.222,4.44520115852356E-02
100.223,4.45040985941887E-02
100.224,4.46100011467934E-02
100.225,4.48094345629215E-02
100.226,4.01389598846436E-02
100.22701,-4.17025648057461E-02
100.228,-4.33303862810135E-02
100.229,-4.36774976551533E-02
100.23,-4.37927544116974E-02
100.231,-4.38275374472141E-02
100.232,-4.38258312642574E-02
100.233,-4.38047461211681E-02
100.234,-4.37718369066715E-02
100.235,-4.37307134270668E-02
100.236,-4.36840131878853E-02
100.237,-4.36330288648605E-02
100.238,-4.35783006250858E-02
100.239,-4.35206517577171E-02
100.24,-4.34603989124298E-02
100.241,-4.33970168232918E-02
100.242,-4.33266870677471E-02
100.243,-4.32376936078072E-02
100.244,-4.31437157094479E-02
100.245,-4.30444814264774E-02
100.246,-4.29417602717876E-02
100.247,-4.28455509245396E-02
100.248,-4.27583269774914E-02
100.249,-4.26792651414871E-02
100.25,-4.26089838147163E-02
100.251,-4.25474457442761E-02
100.252,-4.24949824810028E-02
100.253,-4.24520336091518E-02
100.254,-4.24194522202015E-02
100.255,-4.23972681164742E-02
100.256,-4.23871502280235E-02
100.257,-4.23884354531765E-02
100.258,-4.23991158604622E-02
100.259,-4.24064658582211E-02
100.26,-4.24063988029957E-02
100.261,-4.23958301544189E-02
100.262,-4.23617213964462E-02
100.263,-.042316909879446
100.264,-4.22552041709423E-02
100.265,-4.21631671488285E-02
100.266,-4.20082099735737E-02
100.267,-4.16966043412685E-02
100.26801,-4.07733358442783E-02
100.269,-1.26107987016439E-02
100.27,4.28900420665741E-02
100.271,4.24286015331745E-02
100.272,4.21375036239624E-02
100.273,4.19210605323315E-02
100.274,4.17363382875919E-02
100.275,4.15660254657269E-02
100.276,4.14013899862766E-02
100.277,4.12375554442406E-02
100.278,.041071679443121
100.279,4.09022346138954E-02
100.28,4.07279506325722E-02
100.281,4.05487939715385E-02
100.28201,4.03646193444729E-02
100.283,4.01770509779453E-02
100.284,3.99877540767193E-02
100.285,3.97989936172962E-02
100.286,3.96139696240425E-02
100.287,3.94367948174477E-02
100.288,3.92717085778713E-02
100.289,3.91247794032097E-02
100.29,3.90015915036201E-02
100.291,.038907665759325
100.292,3.88492345809937E-02
100.293,.038831852376461
100.294,3.88596095144749E-02
100.295,3.89366671442986E-02
100.29601,3.90638522803783E-02
100.297,3.92412319779396E-02
100.298,3.94650250673294E-02
100.299,3.97283919155598E-02
100.3,4.00211773812771E-02
100.301,4.03309166431427E-02
100.302,4.06411848962307E-02
100.303,4.09195311367512E-02
100.304,4.10885997116566E-02
100.305,4.12059836089611E-02
100.306,4.12659905850887E-02
100.307,.04127287119627
100.308,.041241180151701
100.309,4.11980450153351E-02
100.31001,4.11801934242249E-02
100.311,4.12279218435287E-02
100.312,4.13668937981129E-02
100.313,4.11159731447697E-02
100.314,4.08764332532883E-02
100.315,4.06416319310665E-02
100.316,.040373221039772
100.317,4.00362946093082E-02
100.318,3.96174006164074E-02
100.319,3.91159616410732E-02
100.32,3.86538542807102E-02
100.321,3.83192077279091E-02
100.322,3.81988137960434E-02
100.323,3.83991077542305E-02
100.32401,3.89316566288471E-02
100.325,3.96992824971676E-02
100.326,4.03845086693764E-02
100.327,4.04829233884811E-02
100.328,.040346022695303
100.329,4.00625951588154E-02
100.33,3.98332700133324E-02
100.331,3.98429855704308E-02
100.332,4.01134788990021E-02
100.333,4.04522567987442E-02
100.334,4.03287410736084E-02
100.335,4.00729589164257E-02
100.336,3.98744903504848E-02
100.337,.039941344410181
100.33801,4.00352105498314E-02
100.339,3.99666652083397E-02
100.34,3.96035611629486E-02
100.341,3.90597246587276E-02
100.342,3.87663319706917E-02
100.343,3.89883853495121E-02
100.344,3.94778437912464E-02
100.345,3.97668480873108E-02
100.346,.039734598249197
100.347,3.96070592105389E-02
100.348,.039397019892931
100.349,3.88181135058403E-02
100.35,3.79957780241966E-02
