Structure Acceleration, RAO-Based Response
Line A: Structure Acceleration, RAO-Based Response - Global Z (Trimaran - Center of Gravity relative to Origin of Fixed Reference Axes (FRA)) [mm/s²]
,
*Time (s),Line A (mm/s?
102.3,-2.257532207
102.301,-2.259594854
102.302,-2.261631656
102.303,-2.263680333
102.304,-2.265699906
102.305,-2.267735079
102.306,-2.269765595
102.30701,-2.271792851
102.30801,-2.273800783
102.30901,-2.275817795
102.31001,-2.277788473
102.311,-2.279792679
102.312,-2.281779656
102.313,-2.283758018
102.314,-2.285739174
102.315,-2.28769402
102.316,-2.289649332
102.317,-2.291601384
102.318,-2.293567173
102.319,-2.295480808
102.32,-2.297422616
102.32101,-2.299350221
102.32201,-2.301284112
102.32301,-2.303200308
102.32401,-2.305103932
102.325,-2.306994284
102.326,-2.30890559
102.327,-2.31079245
102.328,-2.312676748
102.329,-2.314563608
102.33,-2.316419734
102.331,-2.318280283
102.332,-2.320156898
102.333,-2.321991604
102.334,-2.323852153
102.33501,-2.325698268
102.33601,-2.327525523
102.33701,-2.329344861
102.33801,-2.331173513
102.339,-2.332988661
102.34,-2.334780758
102.341,-2.336580772
102.342,-2.338383812
102.343,-2.340173582
102.344,-2.341962652
102.345,-2.343718661
102.346,-2.345493995
102.347,-2.347254893
102.348,-2.34901486
102.34901,-2.350787167
102.35001,-2.352527343
102.35101,-2.354249591
102.35201,-2.355987439
102.353,-2.357713878
102.354,-2.359431237
102.355,-2.361154417
102.356,-2.362842206
102.357,-2.364546061
102.358,-2.3662413
102.359,-2.367919311
102.36,-2.36959802
102.361,-2.371276729
102.362,-2.372946823
102.36301,-2.374612493
102.36401,-2.376277233
102.36501,-2.377928235
102.366,-2.379553393
102.367,-2.381197177
102.368,-2.382834675
102.369,-2.38444237
102.37,-2.386079403
102.371,-2.387668705
102.372,-2.389281057
102.373,-2.390865237
102.374,-2.39247689
102.375,-2.394039184
102.376,-2.395622665
102.37701,-2.397202421
102.37801,-2.398788929
102.37901,-2.400338184
102.38,-2.401896985
102.381,-2.40341993
102.382,-2.404985484
102.383,-2.406501677
102.384,-2.408048604
102.385,-2.4095634
102.386,-2.411066554
102.387,-2.412572736
102.388,-2.414089628
102.389,-2.415571129
102.39,-2.417076845
102.39101,-2.418562071
102.39201,-2.420031466
102.39301,-2.421496436
102.394,-2.422976075
102.395,-2.424425445
102.396,-2.425868763
102.397,-2.427303232
102.398,-2.428758657
102.399,-2.430182649
102.4,-2.431624336
102.401,-2.433020622
102.402,-2.434443217
102.403,-2.435863484
102.404,-2.437258838
102.40501,-2.438668162
102.40601,-2.440056298
102.40701,-2.44140951
102.408,-2.442805562
102.409,-2.444164129
102.41,-2.445533173
102.411,-2.446891041
102.412,-2.448221901
102.413,-2.449559048
102.414,-2.450913889
102.415,-2.452252433
102.416,-2.453547437
102.417,-2.454877831
102.418,-2.456198679
102.41901,-2.457498107
102.42001,-2.458821284
102.42101,-2.460097428
102.422,-2.461380092
102.423,-2.462667646
102.424,-2.463934477
102.425,-2.465220168
102.426,-2.466473496
102.427,-2.467723563
102.428,-2.468975028
102.429,-2.470212756
102.43,-2.471446991
102.431,-2.472691238
102.43201,-2.473905683
102.43301,-2.475103596
102.43401,-2.476325491
102.43501,-2.47753039
102.436,-2.478727372
102.437,-2.479925053
102.438,-2.481094329
102.439,-2.482285723
102.44,-2.483455231
102.441,-2.484623808
102.442,-2.485752106
102.443,-2.486936981
102.444,-2.488068771
102.445,-2.489220817
102.44601,-2.490356797
102.44701,-2.491487423
102.44801,-2.492590807
102.44901,-2.493726555
102.45,-2.494822955
102.451,-2.495938446
102.452,-2.497021342
102.453,-2.498109825
102.454,-2.499178983
102.455,-2.500270493
102.456,-2.501342213
102.457,-2.502389718
102.458,-2.503436524
102.459,-2.504498931
102.46001,-2.505555283
102.46101,-2.506592544
102.46201,-2.507615602
102.46301,-2.508632373
102.464,-2.509651007
102.465,-2.51066708
102.466,-2.511680825
102.467,-2.51267571
102.468,-2.51364056
102.469,-2.514637774
102.47,-2.515625441
102.471,-2.5166017
102.472,-2.517562592
102.473,-2.518513473
102.47401,-2.51946738
102.47501,-2.52041989
102.47601,-2.521360526
102.47701,-2.522288589
102.478,-2.523202449
102.479,-2.524116309
102.48,-2.525050426
102.481,-2.525953576
102.482,-2.526845783
102.483,-2.527727047
102.484,-2.528598532
102.485,-2.529473742
102.486,-2.530317055
102.487,-2.531182719
102.48801,-2.532006474
102.48901,-2.532796701
102.49001,-2.533620456
102.491,-2.534471685
102.492,-2.535275882
102.493,-2.536111744
102.494,-2.536913613
102.495,-2.53774412
102.496,-2.538572764
102.497,-2.539410023
102.498,-2.540186979
102.499,-2.541021444
102.5,-2.541829832
102.501,-2.542646602
102.50201,-2.543432405
102.50301,-2.544237999
102.50401,-2.544995863
102.505,-2.545767231
102.506,-2.54652556
102.507,-2.54727737
102.508,-2.54802173
102.509,-2.548748394
102.51,-2.549484838
102.511,-2.550232923
102.512,-2.550959354
102.513,-2.551689046
102.514,-2.552443882
102.515,-2.553160535
102.51601,-2.5539177
102.51701,-2.554667881
102.51801,-2.555382904
102.519,-2.556082327
102.52,-2.55676941
102.521,-2.557453699
102.522,-2.558081178
102.523,-2.558720065
102.524,-2.559283748
102.525,-2.55986792
102.526,-2.560411114
102.527,-2.560898662
102.528,-2.561419969
102.529,-2.561912406
102.53001,-2.56245723
102.53101,-2.563049085
102.53201,-2.563617891
102.533,-2.564258175
102.534,-2.564884489
102.535,-2.565578558
102.536,-2.566310344
102.537,-2.567055169
102.538,-2.567851683
102.539,-2.568213269
102.54,-2.56862957
102.541,-2.569066128
102.542,-2.569558565
102.543,-2.570079872
102.54401,-2.570630517
102.54501,-2.571207006
102.54601,-2.571853576
102.547,-2.572530881
102.548,-2.572999569
102.549,-2.573256148
102.55,-2.573452191
102.551,-2.573695034
102.552,-2.573993756
102.553,-2.574314596
102.554,-2.574640326
102.555,-2.575007267
102.556,-2.575449646
102.55701,-2.575869439
102.55801,-2.576330211
102.55901,-2.576810773
102.56001,-2.577302745
102.561,-2.577810315
102.562,-2.578368876
102.563,-2.57893512
102.564,-2.579534892
102.565,-2.580103697
102.566,-2.580710454
102.567,-2.581257839
102.568,-2.581792418
102.569,-2.58200895
102.57,-2.582198707
102.57101,-2.582411747
102.57201,-2.582645044
102.57301,-2.582881367
102.57401,-2.583120484
102.575,-2.583321417
102.576,-2.583582187
102.577,-2.583807567
102.578,-2.584064379
102.579,-2.584313508
102.58,-2.584541216
102.581,-2.584769391
102.582,-2.58502271
102.583,-2.58527603
102.584,-2.58551375
102.58501,-2.585736103
102.58601,-2.585959854
102.58701,-2.586192917
102.58801,-2.586434362
102.589,-2.586660674
102.59,-2.58689397
102.591,-2.587091643
102.592,-2.587308176
102.593,-2.587523311
102.594,-2.587741241
102.595,-2.587918425
102.596,-2.588132164
102.597,-2.588300733
102.598,-2.58851843
102.59901,-2.588683739
102.60001,-2.588878851
102.60101,-2.589021111
102.60201,-2.589205978
102.603,-2.589346608
102.604,-2.5895203
102.605,-2.589646494
102.606,-2.589776414
102.607,-2.589901676
102.608,-2.590037882
102.609,-2.590140095
102.61,-2.590253484
102.611,-2.590330783
102.612,-2.590434859
102.61301,-2.590514254
102.61401,-2.590618096
102.61501,-2.590658842
102.616,-2.590709832
102.617,-2.59075989
102.618,-2.590826713
102.619,-2.590877935
102.62,-2.590932185
102.621,-2.590960125
102.622,-2.591011114
102.623,-2.591057448
102.624,-2.591149881
102.625,-2.591229044
102.626,-2.591313096
102.62701,-2.591456287
102.62801,-2.591653727
102.62901,-2.5919748
102.63,-2.592404373
102.631,-2.592894947
102.632,-2.593388781
102.633,-2.593067009
102.634,-2.59257108
102.635,-2.592098201
102.636,-2.591683064
102.637,-2.591327531
102.638,-2.590998309
102.639,-2.590751275
102.64,-2.59048678
102.64101,-2.590265824
102.64201,-2.590089338
102.64301,-2.589922864
102.644,-2.589793643
102.645,-2.589674667
102.646,-2.589584794
102.647,-2.589481417
102.648,-2.589433687
102.649,-2.589407377
102.65,-2.589349169
102.651,-2.589344746
102.652,-2.589350101
102.653,-2.589407377
102.654,-2.589482581
102.65501,-2.589578507
102.65601,-2.589748241
102.65701,-2.5899217
102.658,-2.590140561
102.659,-2.590444172
102.66,-2.590722404
102.661,-2.590853721
102.662,-2.590179909
102.663,-2.589541487
102.664,-2.588945674
102.665,-2.588396659
102.666,-2.587901894
102.667,-2.58741132
102.668,-2.587004332
102.66901,-2.586680464
102.67001,-2.586414106
102.67101,-2.586256713
102.672,-2.586131915
102.673,-2.586111892
102.674,-2.586119343
102.675,-2.586133778
102.676,-2.586148912
102.677,-2.586129121
102.678,-2.586063463
102.679,-2.586015034
102.68,-2.585868351
102.681,-2.585710026
102.68201,-2.585479058
102.68301,-2.585190115
102.68401,-2.584876027
102.68501,-2.584510017
102.686,-2.584118396
102.687,-2.58369022
102.688,-2.583199181
102.689,-2.582733519
102.69,-2.582215937
102.691,-2.581737936
102.692,-2.581192879
102.693,-2.580681117
102.694,-2.580194967
102.695,-2.579725115
102.69601,-2.579254797
102.69701,-2.578836633
102.69801,-2.5783733
102.69901,-2.577993786
102.7,-2.577626845
102.701,-2.577319741
102.702,-2.577041043
102.703,-2.576795872
102.704,-2.576644532
102.705,-2.576568397
102.706,-2.576586558
102.707,-2.576768398
102.708,-2.576310653
102.709,-2.575121121
102.71001,-2.573883627
102.71101,-2.572735306
102.71201,-2.571688732
102.71301,-2.570847049
102.714,-2.570487792
102.715,-2.570935758
102.716,-2.572788391
102.717,-2.576859202
102.718,-2.583336551
102.719,-2.583887428
102.72,-2.586035756
102.721,-2.58890097
102.722,-2.591458149
102.723,-2.593203448
102.72401,-2.594067715
102.72501,-2.594013233
102.72601,-2.593024867
102.72701,-2.591077471
102.728,-2.588034142
102.729,-2.5840858
102.73,-2.579913242
102.731,-2.577048726
102.732,-2.571312245
102.733,-2.565298695
102.734,-2.5623939
102.735,-2.561253961
102.736,-2.561323112
102.737,-2.562915208
102.73801,-2.566501731
102.73901,-2.571475459
102.74001,-2.57192296
102.741,-2.571655437
102.742,-2.570932498
102.743,-2.569951816
102.744,-2.565755975
102.745,-2.560846508
102.746,-2.557719359
102.747,-2.556323307
102.748,-2.556251595
102.749,-2.557075815
102.75,-2.558070468
,-2.594067715
