Structure Acceleration, RAO-Based Response
Line A: Structure Acceleration, RAO-Based Response - Global Z (Trimaran - Center of Gravity relative to Origin of Fixed Reference Axes (FRA)) [mm/s²]
,
*Time (s),Line A (mm/s?
101.1,-4.089861177
101.101,-4.090107512
101.102,-4.090346862
101.103,-4.090582021
101.104,-4.090808798
101.105,-4.091054667
101.106,-4.091256298
101.107,-4.091455601
101.108,-4.091653507
101.109,-4.091842566
101.11,-4.092034884
101.111,-4.092213698
101.112,-4.09237016
101.113,-4.092535004
101.114,-4.092688672
101.115,-4.092832096
101.116,-4.092972726
101.117,-4.093100317
101.118,-4.09322232
101.119,-4.09335969
101.12,-4.093461204
101.121,-4.093565047
101.122,-4.093653522
101.123,-4.093745258
101.124,-4.093817901
101.125,-4.093893338
101.126,-4.093961325
101.127,-4.094019998
101.128,-4.09406377
101.129,-4.094124306
101.13,-4.094164353
101.131,-4.094180185
101.132,-4.094207194
101.133,-4.094228614
101.134,-4.09423653
101.135,-4.094237462
101.136,-4.094234202
101.137,-4.094207194
101.138,-4.094207659
101.139,-4.094157834
101.14,-4.094121978
101.141,-4.094081931
101.142,-4.094022326
101.143,-4.093967378
101.144,-4.093892407
101.145,-4.093822092
101.146,-4.093740601
101.147,-4.09366237
101.14799,-4.093571566
101.149,-4.093463067
101.15,-4.093346652
101.151,-4.093232099
101.152,-4.093130585
101.153,-4.092979711
101.154,-4.092833959
101.155,-4.092691466
101.156,-4.092535004
101.157,-4.0923669
101.158,-4.0921974
101.159,-4.092025571
101.16,-4.09186352
101.161,-4.0916875
101.16199,-4.091484938
101.163,-4.091265611
101.164,-4.091051407
101.165,-4.090853967
101.166,-4.090629984
101.167,-4.090388771
101.168,-4.090145696
101.169,-4.089894239
101.17,-4.089643247
101.171,-4.089383874
101.172,-4.089109134
101.173,-4.088831134
101.174,-4.088564776
101.175,-4.088278394
101.17599,-4.087983165
101.177,-4.087666981
101.178,-4.087350797
101.179,-4.087027628
101.18,-4.086710513
101.181,-4.086368717
101.182,-4.086031113
101.183,-4.085680004
101.184,-4.085324705
101.185,-4.084968008
101.186,-4.084597807
101.187,-4.084217362
101.188,-4.083855543
101.189,-4.083459266
101.18999,-4.083059262
101.191,-4.082642961
101.192,-4.082225729
101.193,-4.081808962
101.194,-4.081383813
101.195,-4.080948886
101.196,-4.080529325
101.197,-4.080085084
101.198,-4.079625476
101.199,-4.079160281
101.2,-4.078694154
101.201,-4.078216851
101.202,-4.077738151
101.203,-4.077256657
101.20399,-4.076752346
101.205,-4.076244775
101.206,-4.075728357
101.207,-4.075221252
101.208,-4.074684344
101.209,-4.074156284
101.21,-4.073621705
101.211,-4.073071759
101.212,-4.072524142
101.213,-4.071959294
101.214,-4.071384668
101.215,-4.070806317
101.216,-4.070241004
101.217,-4.069645423
101.21799,-4.069057293
101.219,-4.068447277
101.22,-4.067837261
101.221,-4.067225847
101.222,-4.066602327
101.223,-4.065969959
101.224,-4.065326415
101.225,-4.064678214
101.226,-4.06402396
101.227,-4.063385539
101.228,-4.062709864
101.229,-4.062041175
101.23,-4.061388783
101.231,-4.060698673
101.232,-4.059977829
101.233,-4.059293773
101.234,-4.058576655
101.235,-4.057861399
101.236,-4.057149403
101.237,-4.056417849
101.238,-4.055680241
101.239,-4.054932855
101.24,-4.054189194
101.241,-4.053436685
101.242,-4.05267626
101.243,-4.051899537
101.244,-4.051140044
101.245,-4.050360993
101.246,-4.049560986
101.247,-4.048770294
101.248,-4.047955852
101.249,-4.047116265
101.25,-4.046309274
101.251,-4.045493435
101.252,-4.044664092
101.253,-4.043824971
101.254,-4.042974208
101.255,-4.042129964
101.256,-4.041266628
101.257,-4.040409345
101.258,-4.039533902
101.259,-4.03867662
101.26,-4.037754145
101.261,-4.03685635
101.262,-4.035964143
101.263,-4.035039805
101.264,-4.034146667
101.265,-4.033226985
101.266,-4.032297526
101.267,-4.031373188
101.268,-4.03042743
101.269,-4.029469099
101.27,-4.028516356
101.271,-4.027555697
101.272,-4.026599228
101.27299,-4.025615752
101.274,-4.024622496
101.275,-4.023627378
101.276,-4.022625741
101.277,-4.021610133
101.278,-4.020615015
101.279,-4.019600339
101.28,-4.018563312
101.281,-4.017526284
101.282,-4.016487394
101.283,-4.015441053
101.284,-4.014364909
101.285,-4.013285041
101.286,-4.012205172
101.28699,-4.011111334
101.288,-4.010002594
101.289,-4.008907825
101.29,-4.00779862
101.291,-4.006686155
101.292,-4.005594179
101.293,-4.004483111
101.294,-4.003383685
101.295,-4.002277739
101.296,-4.001164809
101.297,-4.000035115
101.298,-3.998907283
101.299,-3.997779917
101.3,-3.996647894
101.30099,-3.995498642
101.302,-3.994318657
101.303,-3.993152175
101.304,-3.991949372
101.305,-3.990782425
101.306,-3.989591263
101.307,-3.988403361
101.308,-3.987199161
101.309,-3.985992633
101.31,-3.984790295
101.311,-3.983584233
101.312,-3.982367925
101.313,-3.981139045
101.314,-3.979905508
101.31499,-3.97865288
101.316,-3.977372777
101.317,-3.976083361
101.318,-3.974762745
101.319,-3.973464482
101.32,-3.972120117
101.321,-3.970814869
101.322,-3.969497513
101.323,-3.96819599
101.324,-3.966904711
101.325,-3.965606447
101.326,-3.964355215
101.327,-3.963120282
101.328,-3.961835057
101.32899,-3.960518632
101.33,-3.959170077
101.331,-3.957799636
101.332,-3.956367727
101.333,-3.954934888
101.334,-3.953461535
101.335,-3.951998893
101.336,-3.950555809
101.337,-3.949133214
101.338,-3.947745077
101.339,-3.946373705
101.34,-3.945013974
101.341,-3.94371897
101.342,-3.942415584
101.34299,-3.941097297
101.344,-3.939656541
101.345,-3.938189242
101.346,-3.936720546
101.347,-3.935316112
101.348,-3.933774307
101.349,-3.932203166
101.35,-3.930591512
101.351,-3.928965423
101.352,-3.927354701
101.353,-3.925766796
101.354,-3.924211953
101.355,-3.92267108
101.356,-3.921133
101.357,-3.919588868
101.358,-3.918090835
101.359,-3.916576039
101.36,-3.91510129
101.361,-3.913640045
101.362,-3.912209067
101.363,-3.91077064
101.364,-3.909321502
101.365,-3.907871433
101.366,-3.906394821
101.367,-3.904859303
101.368,-3.903168254
101.369,-3.90150398
101.37,-3.899808275
101.371,-3.898126306
101.372,-3.896436421
101.373,-3.894733498
101.374,-3.893051529
101.375,-3.891383531
101.376,-3.889696207
101.377,-3.888014005
101.378,-3.886324354
101.379,-3.884630976
101.38,-3.882929217
101.381,-3.881224897
101.382,-3.879524535
101.383,-3.87783139
101.384,-3.876129631
101.385,-3.874395043
101.386,-3.87268234
101.387,-3.870944027
101.388,-3.869217122
101.389,-3.867507214
101.39,-3.86577216
101.391,-3.864014754
101.392,-3.862271085
101.393,-3.860516241
101.394,-3.858784214
101.395,-3.85702285
101.396,-3.855246585
101.397,-3.853492206
101.39799,-3.851714544
101.399,-3.849913832
101.4,-3.8481222
101.401,-3.846305655
101.402,-3.844497027
101.403,-3.842691425
101.404,-3.840870224
101.405,-3.839044599
101.406,-3.837215481
101.407,-3.835357027
101.408,-3.833512543
101.409,-3.831654787
101.41,-3.829796799
101.411,-3.82792647
101.41199,-3.826046363
101.413,-3.824142972
101.414,-3.822218627
101.415,-3.820313141
101.416,-3.818405559
101.417,-3.816509852
101.418,-3.814592026
101.419,-3.812691662
101.42,-3.810775001
101.421,-3.808865556
101.422,-3.806943074
101.423,-3.805037122
101.424,-3.803152824
101.425,-3.801306011
101.42599,-3.799471306
101.427,-3.797700629
101.428,-3.796003759
101.429,-3.794398624
101.43,-3.792852629
101.431,-3.790973686
101.432,-3.788619302
101.433,-3.786315443
101.434,-3.784072353
101.435,-3.781865351
101.436,-3.779703751
101.437,-3.777559381
101.438,-3.775466001
101.439,-3.773400094
101.43999,-3.771311603
101.441,-3.769262927
101.442,-3.767199349
101.443,-3.765152302
101.444,-3.763139946
101.445,-3.761100583
101.446,-3.759067738
101.447,-3.757003928
101.448,-3.754962701
101.449,-3.752919147
101.45,-3.750856034
101.451,-3.748811549
101.452,-3.746773582
101.453,-3.744764486
101.45399,-3.742750967
101.455,-3.740774235
101.456,-3.738802625
101.457,-3.736895742
101.458,-3.735024482
101.459,-3.733184654
101.46,-3.731384175
101.461,-3.729642835
101.462,-3.727152944
101.463,-3.724680748
101.464,-3.722252091
101.465,-3.719886299
101.466,-3.717560088
101.467,-3.715307452
101.468,-3.713092534
101.469,-3.71094537
101.47,-3.708808683
101.471,-3.706706222
101.472,-3.7046168
101.473,-3.702497343
101.474,-3.700379981
101.475,-3.698240733
101.476,-3.696105909
101.477,-3.693934064
101.478,-3.691739403
101.479,-3.689527046
101.48,-3.687318182
101.481,-3.685066476
101.482,-3.682761686
101.483,-3.68045806
101.484,-3.678132314
101.485,-3.675828921
101.486,-3.673508298
101.487,-3.671174636
101.488,-3.668830963
101.489,-3.666493576
101.49,-3.664157121
101.491,-3.661819268
101.492,-3.659487935
101.493,-3.657135414
101.494,-3.654819215
101.495,-3.652461106
101.496,-3.650125582
101.497,-3.647773061
101.498,-3.645450575
101.499,-3.643112723
101.5,-3.64080281
101.501,-3.638498718
101.502,-3.636165755
101.503,-3.633854911
101.504,-3.631563159
101.505,-3.629298415
101.506,-3.62704834
101.507,-3.624826204
101.508,-3.622637363
101.509,-3.620476695
101.51,-3.618384711
101.511,-3.616076428
101.512,-3.613277106
101.513,-3.610476153
101.514,-3.607703606
101.515,-3.605038859
101.516,-3.602585522
101.517,-3.600591561
101.518,-3.599441145
101.519,-3.599720076
101.52,-3.6022719
101.521,-3.607827239
101.522,-3.613637062
101.52299,-3.617676441
101.524,-3.622454125
101.525,-3.626534948
101.526,-3.629136598
101.527,-3.629931016
101.528,-3.628889099
101.529,-3.626014804
101.53,-3.621356329
101.531,-3.614893882
101.532,-3.606713144
101.533,-3.597231349
101.534,-3.587495768
101.535,-3.579078708
101.536,-3.567185951
101.53699,-3.55868577
101.538,-3.553157905
101.539,-3.549652873
101.54,-3.547619795
101.541,-3.547042375
101.542,-3.548026783
101.543,-3.55009269
101.544,-3.552069888
101.545,-3.55260307
101.546,-3.550855676
101.547,-3.546970896
101.548,-3.54166748
101.549,-3.536034841
101.55,-3.530987771
,-3.530987771
,-4.094237462
