Structure Acceleration, RAO-Based Response
Line A: Structure Acceleration, RAO-Based Response - Global Z (Trimaran - Center of Gravity relative to Origin of Fixed Reference Axes (FRA)) [mm/s²]
,
*Time (s),Line A (mm/s?
99.4,-0.244251307
99.401,-0.244342256
99.402,-0.244432944
99.403,-0.244522205
99.404,-0.244613475
99.405,-0.244703115
99.406,-0.244791358
99.40701,-0.244881754
99.408,-0.244969124
99.409,-0.245058967
99.41,-0.245146075
99.411,-0.24523391
99.412,-0.245322211
99.413,-0.245407777
99.414,-0.245494331
99.415,-0.24558109
99.416,-0.245666306
99.417,-0.245752104
99.418,-0.245837233
99.419,-0.245922711
99.42,-0.246006035
99.42101,-0.246091367
99.422,-0.246175536
99.423,-0.246257667
99.424,-0.246341951
99.425,-0.246423704
99.426,-0.246506912
99.427,-0.246589625
99.428,-0.24667033
99.429,-0.246752606
99.43,-0.246832729
99.431,-0.246914162
99.432,-0.246995303
99.433,-0.247074728
99.434,-0.247155549
99.43501,-0.247234711
99.436,-0.247313408
99.437,-0.24739161
99.438,-0.247471413
99.439,-0.247549353
99.44,-0.247626565
99.441,-0.247703778
99.442,-0.247781893
99.443,-0.247857562
99.444,-0.247935124
99.445,-0.248009834
99.446,-0.248085184
99.447,-0.248161756
99.448,-0.248235592
99.44901,-0.248312834
99.45,-0.248385244
99.451,-0.248459721
99.452,-0.248532422
99.453,-0.248606229
99.454,-0.248679979
99.455,-0.248751574
99.456,-0.248825294
99.457,-0.248896627
99.458,-0.248968514
99.459,-0.249039556
99.46,-0.249109376
99.461,-0.249180448
99.462,-0.249251781
99.46301,-0.249320874
99.464,-0.249391334
99.465,-0.249459728
99.466,-0.249529257
99.467,-0.249597942
99.468,-0.249665231
99.469,-0.249734061
99.47,-0.249801407
99.471,-0.249868288
99.472,-0.249935489
99.473,-0.250001816
99.474,-0.25006861
99.475,-0.250132958
99.476,-0.250199402
99.47701,-0.250264653
99.478,-0.250329846
99.479,-0.250393758
99.48,-0.250457146
99.481,-0.250522047
99.482,-0.250584766
99.483,-0.250648183
99.484,-0.25071195
99.485,-0.250772515
99.486,-0.250835175
99.487,-0.250896934
99.488,-0.250958517
99.489,-0.251020887
99.49,-0.251080288
99.491,-0.251140911
99.492,-0.25120136
99.493,-0.25126111
99.494,-0.251319841
99.495,-0.251379941
99.496,-0.251438381
99.497,-0.251496909
99.498,-0.251555204
99.499,-0.251612597
99.5,-0.25166964
99.501,-0.251726276
99.502,-0.25178236
99.503,-0.251838967
99.504,-0.251895806
99.505,-0.251951395
99.506,-0.252007507
99.507,-0.252061262
99.508,-0.252115977
99.509,-0.252170285
99.51,-0.252224039
99.511,-0.252278609
99.512,-0.252331345
99.513,-0.252384139
99.514,-0.252436323
99.515,-0.252489175
99.516,-0.252540194
99.517,-0.252592698
99.518,-0.252642611
99.519,-0.252695114
99.52,-0.252746278
99.521,-0.252794445
99.522,-0.252845639
99.523,-0.252895115
99.524,-0.25294337
99.525,-0.252992439
99.526,-0.253041828
99.527,-0.25308918
99.528,-0.253137783
99.529,-0.253184349
99.53,-0.253231177
99.531,-0.253278558
99.53201,-0.253325328
99.533,-0.253371982
99.534,-0.253418053
99.535,-0.253462465
99.536,-0.253507809
99.537,-0.253553211
99.538,-0.253597274
99.539,-0.253641279
99.54,-0.253685081
99.541,-0.253727863
99.542,-0.253770966
99.543,-0.253814069
99.544,-0.253856619
99.545,-0.253898936
99.54601,-0.253939215
99.547,-0.253981998
99.548,-0.254022831
99.549,-0.254063314
99.55,-0.254105107
99.551,-0.254143699
99.552,-0.25418427
99.553,-0.254223385
99.554,-0.254262035
99.555,-0.254301471
99.556,-0.254338665
99.557,-0.254376529
99.558,-0.254414452
99.559,-0.254451355
99.56001,-0.254489889
99.561,-0.254524522
99.562,-0.254561455
99.563,-0.254597137
99.564,-0.254633342
99.565,-0.254667975
99.566,-0.254703686
99.567,-0.25473765
99.568,-0.254771992
99.569,-0.254805869
99.57,-0.254839601
99.571,-0.254871731
99.572,-0.254906248
99.573,-0.25493768
99.57401,-0.25497048
99.575,-0.255002669
99.576,-0.255032559
99.577,-0.255065825
99.578,-0.255093997
99.579,-0.255124411
99.58,-0.255156017
99.581,-0.255183404
99.582,-0.255213468
99.583,-0.255243358
99.584,-0.255271094
99.585,-0.255298015
99.586,-0.255325518
99.587,-0.255352061
99.58801,-0.255378312
99.589,-0.255405233
99.59,-0.255430379
99.591,-0.255457271
99.592,-0.255483203
99.593,-0.255507766
99.594,-0.255534891
99.595,-0.255560735
99.596,-0.255583611
99.597,-0.255609979
99.598,-0.255635212
99.599,-0.255659485
99.6,-0.255684688
99.601,-0.255705963
99.60201,-0.255732302
99.603,-0.255753228
99.604,-0.2557759
99.605,-0.255798397
99.606,-0.255819468
99.607,-0.255842227
99.608,-0.255861814
99.609,-0.255883671
99.61,-0.255904859
99.611,-0.255924999
99.612,-0.255944557
99.613,-0.255963969
99.614,-0.255983468
99.615,-0.256001047
99.616,-0.256019412
99.617,-0.256036554
99.618,-0.256052503
99.619,-0.256068539
99.62,-0.256084488
99.621,-0.256101019
99.622,-0.256118423
99.623,-0.256133964
99.624,-0.256151397
99.625,-0.256169296
99.626,-0.256184896
99.627,-0.25620166
99.628,-0.256215426
99.629,-0.256227475
99.63,-0.256239728
99.631,-0.256250118
99.632,-0.256262138
99.633,-0.256272237
99.634,-0.256284751
99.635,-0.256297411
99.636,-0.256310712
99.637,-0.256326603
99.638,-0.256340107
99.639,-0.256352709
99.64,-0.256361469
99.641,-0.256369007
99.642,-0.256375701
99.643,-0.256382948
99.644,-0.256388827
99.645,-0.256396481
99.646,-0.256406493
99.647,-0.256415224
99.648,-0.256425759
99.649,-0.256435655
99.65,-0.256442378
99.651,-0.256448518
99.652,-0.256452797
99.653,-0.256454485
99.654,-0.256458734
99.655,-0.256461441
99.656,-0.25646633
99.65701,-0.256472704
99.658,-0.256478321
99.659,-0.25648321
99.66,-0.25648778
99.661,-0.256489875
99.662,-0.256492262
99.663,-0.256491621
99.664,-0.256491097
99.665,-0.256491214
99.666,-0.256489846
99.667,-0.256489351
99.668,-0.256488391
99.669,-0.256487401
99.67,-0.256485277
99.67101,-0.256485248
99.672,-0.256482919
99.673,-0.25648321
99.674,-0.256481319
99.675,-0.256478175
99.676,-0.256477157
99.677,-0.256473635
99.678,-0.25647087
99.679,-0.256469764
99.68,-0.256465311
99.681,-0.256461528
99.682,-0.256460247
99.683,-0.256455474
99.684,-0.256451225
99.68501,-0.256447849
99.686,-0.25644264
99.687,-0.256437954
99.688,-0.256433326
99.689,-0.256426982
99.69,-0.256421918
99.691,-0.25641502
99.692,-0.256408413
99.693,-0.256402593
99.694,-0.256395258
99.695,-0.256386498
99.696,-0.256380939
99.697,-0.256371801
99.698,-0.256364787
99.69901,-0.256355474
99.7,-0.256346044
99.701,-0.256338564
99.702,-0.256327796
99.703,-0.256318715
99.704,-0.256308209
99.705,-0.256298867
99.706,-0.256289117
99.707,-0.256277563
99.708,-0.256266794
99.709,-0.256257161
99.71,-0.256245286
99.711,-0.256233528
99.712,-0.256222673
99.71301,-0.256211613
99.714,-0.25619904
99.715,-0.256188301
99.716,-0.256176398
99.717,-0.256165862
99.718,-0.25615393
99.719,-0.256142754
99.72,-0.256133324
99.721,-0.25612241
99.722,-0.256111089
99.723,-0.256095489
99.724,-0.25607206
99.725,-0.256047962
99.726,-0.256026193
99.72701,-0.256002444
99.728,-0.255983177
99.729,-0.255963387
99.73,-0.255946768
99.731,-0.255932071
99.732,-0.255914318
99.733,-0.255897117
99.734,-0.255879568
99.735,-0.255861611
99.736,-0.255842344
99.737,-0.255823281
99.738,-0.25580186
99.739,-0.255779712
99.74,-0.255758234
99.741,-0.255733496
99.742,-0.255709456
99.743,-0.255682826
99.744,-0.255655497
99.745,-0.255628751
99.746,-0.255599676
99.747,-0.255570601
99.748,-0.255543186
99.749,-0.255512394
99.75,-0.255483086
99.751,-0.255455263
99.752,-0.255424588
99.753,-0.25539819
99.754,-0.255369931
99.755,-0.25534202
99.756,-0.255317485
99.757,-0.25529234
99.758,-0.255266874
99.759,-0.255242747
99.76,-0.255215855
99.761,-0.255188934
99.762,-0.255159335
99.763,-0.25512866
99.764,-0.255098013
99.765,-0.255066523
99.766,-0.255035673
99.767,-0.25500817
99.76801,-0.254982588
99.769,-0.254962419
99.77,-0.254951214
99.771,-0.254944985
99.772,-0.254889688
99.773,-0.254840677
99.774,-0.25479708
99.775,-0.254760642
99.776,-0.254725252
99.777,-0.254690734
99.778,-0.254660263
99.779,-0.254626066
99.78,-0.25459216
99.781,-0.254558923
99.78201,-0.254524435
99.783,-0.25449018
99.784,-0.254455168
99.785,-0.254418002
99.786,-0.254382961
99.787,-0.254346232
99.788,-0.254308485
99.789,-0.254273909
99.79,-0.254237879
99.791,-0.254199578
99.792,-0.254165148
99.793,-0.254128827
99.794,-0.254090322
99.795,-0.254054292
99.79601,-0.254012906
99.797,-0.253974984
99.798,-0.253933889
99.799,-0.25389294
99.8,-0.253852922
99.801,-0.25381241
99.802,-0.253773353
99.803,-0.253739796
99.804,-0.253712467
99.805,-0.253694307
99.806,-0.253693404
99.807,-0.25371401
99.808,-0.253771374
99.809,-0.253877719
99.81001,-0.25406052
99.811,-0.254354731
99.812,-0.254795828
99.813,-0.255277351
99.814,-0.255786901
99.815,-0.256390951
99.816,-0.257009146
99.817,-0.257555832
99.818,-0.257978099
99.819,-0.258257613
99.82,-0.258380082
99.821,-0.25836291
99.822,-0.25822295
99.823,-0.257911481
99.82401,-0.257432665
99.825,-0.256782543
99.826,-0.255998515
99.827,-0.255195686
99.828,-0.254514511
99.829,-0.253868493
99.83,-0.253415696
99.831,-0.253183884
99.832,-0.253124133
99.833,-0.253227918
99.834,-0.253508129
99.835,-0.253951672
99.836,-0.254288898
99.837,-0.254538347
99.83801,-0.254625309
99.839,-0.254509156
99.84,-0.254225335
99.841,-0.253865524
99.842,-0.253441307
99.843,-0.253070146
99.844,-0.252874859
99.845,-0.252836355
99.846,-0.252918893
99.847,-0.253050646
99.848,-0.253130624
99.849,-0.253104867
99.85,-0.252995553
99.851,-0.252870785
99.85201,-0.25278065
99.853,-0.252712867
99.854,-0.252628495
99.855,-0.252495374
99.856,-0.252326106
99.857,-0.252180878
99.858,-0.252150523
99.859,-0.252290542
99.86,-0.252537866
99.861,-0.252646627
99.862,-0.25240847
99.863,-0.251955877
99.864,-0.251630117
99.865,-0.251650345
99.866,-0.252087833
99.867,-0.25252832
99.868,-0.252497237
99.869,-0.251928839
99.87,-0.251309684
99.871,-0.2513004
99.872,-0.252016092
99.873,-0.252572238
99.874,-0.25234514
99.875,-0.251446385
99.876,-0.25095031
99.877,-0.251561054
99.878,-0.252504309
99.879,-0.252490456
99.88,-0.251429447
99.881,-0.250747224
99.882,-0.251575082
99.883,-0.252710801
99.884,-0.252244121
99.885,-0.250878162
99.886,-0.250828452
99.887,-0.252310012
99.888,-0.252752128
99.889,-0.251172896
99.89,-0.250516139
99.891,-0.252056867
99.892,-0.252926751
99.89301,-0.251129357
99.894,-0.250450656
99.895,-0.252332829
99.896,-0.252836442
99.897,-0.250658777
99.898,-0.250717159
99.899,-0.253116596
99.9,-0.252049329
,-0.258380082
