Structure Acceleration, RAO-Based Response
Line A: Structure Acceleration, RAO-Based Response - Global Z (Trimaran - Center of Gravity relative to Origin of Fixed Reference Axes (FRA)) [mm/s²]
,
*Time (s),Line A (mm/s?
103.6,-7.012680173
103.601,-7.015149575
103.602,-7.017557044
103.603,-7.019999903
103.604,-7.022378501
103.605,-7.024789229
103.606,-7.02716969
103.607,-7.029530127
103.608,-7.031904999
103.609,-7.034256589
103.61,-7.036597002
103.611,-7.038896903
103.612,-7.041217294
103.613,-7.043489721
103.614,-7.045788225
103.615,-7.048049942
103.616,-7.050292566
103.617,-7.052537985
103.618,-7.054782473
103.619,-7.056992035
103.62,-7.059205323
103.621,-7.061406504
103.622,-7.063594647
103.623,-7.065771148
103.624,-7.06794532
103.625,-7.070061751
103.626,-7.072206121
103.627,-7.074304856
103.628,-7.076411042
103.629,-7.078522816
103.63,-7.08057126
103.631,-7.082674652
103.632,-7.084721699
103.633,-7.086773403
103.634,-7.088788319
103.635,-7.090834435
103.636,-7.092838641
103.637,-7.094829809
103.638,-7.096796762
103.639,-7.098776754
103.64,-7.100731134
103.641,-7.102650125
103.642,-7.104561199
103.643,-7.106494159
103.644,-7.108402438
103.645,-7.110282313
103.646,-7.112193387
103.647,-7.114033215
103.64799,-7.115871646
103.649,-7.117714733
103.65,-7.11958576
103.651,-7.121371571
103.652,-7.123171818
103.653,-7.12493388
103.654,-7.126738317
103.655,-7.128504105
103.656,-7.130263373
103.657,-7.131974678
103.658,-7.133731153
103.659,-7.135415915
103.66,-7.137122098
103.661,-7.138819434
103.66199,-7.140465546
103.663,-7.142147981
103.664,-7.143775001
103.665,-7.145421114
103.666,-7.147045806
103.667,-7.1486542
103.668,-7.150240242
103.669,-7.151839789
103.67,-7.15340348
103.671,-7.15495972
103.672,-7.156492211
103.673,-7.158023771
103.674,-7.159535773
103.675,-7.161059882
103.67599,-7.162542082
103.677,-7.164022885
103.678,-7.165494841
103.679,-7.166936528
103.68,-7.168357726
103.681,-7.169806398
103.682,-7.171233185
103.683,-7.172614802
103.684,-7.174025755
103.685,-7.175398991
103.686,-7.176755462
103.687,-7.17808539
103.688,-7.17944419
103.689,-7.180752698
103.68999,-7.182085421
103.691,-7.183374371
103.692,-7.184666116
103.693,-7.185928989
103.694,-7.187184412
103.695,-7.188417017
103.696,-7.189680822
103.697,-7.190884557
103.698,-7.192065008
103.699,-7.193268742
103.7,-7.194446865
103.701,-7.195628714
103.702,-7.196767721
103.703,-7.197934669
103.70399,-7.199034095
103.705,-7.200152613
103.706,-7.20125204
103.707,-7.20236171
103.708,-7.203430403
103.709,-7.204493973
103.71,-7.205527741
103.711,-7.206574082
103.712,-7.207597606
103.713,-7.208603434
103.714,-7.209612522
103.715,-7.210581098
103.716,-7.211554796
103.717,-7.212503813
103.71799,-7.213471923
103.719,-7.214394864
103.72,-7.215298712
103.721,-7.216199767
103.722,-7.217127364
103.723,-7.217978593
103.724,-7.218855433
103.725,-7.219693623
103.726,-7.220525295
103.727,-7.221360225
103.728,-7.222161163
103.729,-7.222956512
103.73,-7.223736495
103.731,-7.224523462
103.732,-7.22528249
103.733,-7.226020098
103.734,-7.226756774
103.735,-7.227481809
103.736,-7.228185888
103.737,-7.228896488
103.738,-7.229568902
103.739,-7.230228744
103.74,-7.230851334
103.741,-7.231517229
103.742,-7.232151926
103.743,-7.232757751
103.744,-7.233362179
103.745,-7.233945187
103.746,-7.234512828
103.747,-7.235071156
103.748,-7.235632278
103.749,-7.236158941
103.75,-7.236693986
103.751,-7.23717222
103.752,-7.237678394
103.753,-7.238161284
103.754,-7.238623686
103.755,-7.239040919
103.756,-7.239517756
103.757,-7.239932194
103.758,-7.240331266
103.759,-7.240728009
103.76,-7.2411336
103.761,-7.241503801
103.762,-7.241844665
103.763,-7.242195774
103.764,-7.242535707
103.765,-7.242839783
103.766,-7.243137807
103.767,-7.243455388
103.768,-7.243720349
103.769,-7.243971806
103.77,-7.244242821
103.771,-7.244467735
103.772,-7.244677283
103.77299,-7.244898938
103.774,-7.245080546
103.775,-7.24527752
103.776,-7.245427463
103.777,-7.245581131
103.778,-7.245727815
103.779,-7.245862391
103.78,-7.245958317
103.781,-7.246057969
103.782,-7.246158086
103.783,-7.246181834
103.784,-7.246206515
103.785,-7.246202789
103.786,-7.246203721
103.78699,-7.246170193
103.788,-7.246155757
103.789,-7.246144582
103.79,-7.246127352
103.791,-7.246093359
103.792,-7.246051449
103.793,-7.246035151
103.794,-7.245994173
103.795,-7.245915476
103.796,-7.24584097
103.797,-7.245754357
103.798,-7.245660294
103.799,-7.245537825
103.8,-7.245377637
103.80099,-7.245251443
103.802,-7.245065179
103.803,-7.244891021
103.804,-7.244680077
103.805,-7.244490553
103.806,-7.244251668
103.807,-7.244044915
103.808,-7.243774366
103.809,-7.243555505
103.81,-7.243329193
103.811,-7.243026514
103.812,-7.242749911
103.813,-7.242481224
103.814,-7.242152002
103.81499,-7.241778541
103.816,-7.241405081
103.817,-7.240995299
103.818,-7.240554783
103.819,-7.240097504
103.82,-7.239579689
103.821,-7.239033468
103.822,-7.238495629
103.823,-7.23797502
103.824,-7.237472571
103.825,-7.236981299
103.826,-7.236509584
103.827,-7.236041129
103.828,-7.235601079
103.82899,-7.235176861
103.83,-7.23479921
103.831,-7.23440852
103.832,-7.233786862
103.833,-7.233104203
103.834,-7.232461125
103.835,-7.231884636
103.836,-7.231325842
103.837,-7.23076798
103.838,-7.229875308
103.839,-7.228988223
103.84,-7.228072733
103.841,-7.22722616
103.842,-7.226429414
103.84299,-7.225666195
103.844,-7.224903442
103.845,-7.224210072
103.846,-7.223532535
103.847,-7.222925313
103.848,-7.222312503
103.849,-7.221717387
103.85,-7.221124601
103.851,-7.220271043
103.852,-7.219330873
103.853,-7.218437269
103.854,-7.217643317
103.855,-7.21682515
103.856,-7.215891499
103.857,-7.214809768
103.858,-7.21366005
103.859,-7.212499157
103.86,-7.211322431
103.861,-7.210139185
103.862,-7.209055591
103.863,-7.207997609
103.864,-7.20693497
103.865,-7.205936126
103.866,-7.204898167
103.867,-7.203845773
103.868,-7.202761713
103.869,-7.201719098
103.87,-7.200667169
103.871,-7.199591026
103.872,-7.198480424
103.873,-7.197405677
103.874,-7.196275052
103.875,-7.195153739
103.876,-7.194039878
103.877,-7.192889694
103.878,-7.191728801
103.879,-7.190573029
103.88,-7.189398631
103.881,-7.188194897
103.882,-7.186993025
103.883,-7.185772061
103.884,-7.184545975
103.885,-7.183280308
103.886,-7.182018366
103.887,-7.18073966
103.888,-7.179474458
103.889,-7.178139873
103.89,-7.176811341
103.891,-7.175500505
103.892,-7.174165454
103.893,-7.17277918
103.894,-7.17141619
103.895,-7.17001548
103.896,-7.168636192
103.897,-7.167206146
103.89799,-7.165795192
103.899,-7.164354902
103.9,-7.162915543
103.901,-7.161379326
103.902,-7.159803994
103.903,-7.158211898
103.904,-7.156561594
103.905,-7.154902443
103.906,-7.153214887
103.907,-7.151538506
103.908,-7.149793673
103.909,-7.148019504
103.91,-7.146226708
103.911,-7.144453935
103.91199,-7.142611314
103.913,-7.14074634
103.914,-7.138861809
103.915,-7.136973087
103.916,-7.135091349
103.917,-7.133169565
103.918,-7.131254766
103.919,-7.129333913
103.92,-7.127397228
103.921,-7.125470787
103.922,-7.123569027
103.923,-7.121690549
103.924,-7.119785063
103.925,-7.117939647
103.92599,-7.116206922
103.927,-7.114513312
103.928,-7.112879772
103.929,-7.111286744
103.93,-7.109772414
103.931,-7.108280435
103.932,-7.106815465
103.933,-7.105410099
103.934,-7.103992626
103.935,-7.10179098
103.936,-7.09932996
103.937,-7.096942049
103.938,-7.09458068
103.939,-7.092270069
103.93999,-7.090003695
103.941,-7.087747566
103.942,-7.085547317
103.943,-7.083342876
103.944,-7.081156597
103.945,-7.0790397
103.946,-7.076872513
103.947,-7.074759807
103.948,-7.072666194
103.949,-7.070539519
103.95,-7.068446837
103.951,-7.066398859
103.952,-7.064331323
103.953,-7.062284276
103.95399,-7.060310338
103.955,-7.058315445
103.956,-7.056411356
103.957,-7.054514717
103.958,-7.052661385
103.959,-7.050862536
103.96,-7.048385218
103.961,-7.045596838
103.962,-7.042865269
103.963,-7.040153723
103.964,-7.037519943
103.965,-7.034893613
103.966,-7.032357622
103.967,-7.029985543
103.968,-7.027674466
103.969,-7.025422994
103.97,-7.023167796
103.971,-7.020913996
103.972,-7.01862108
103.973,-7.016303483
103.974,-7.013918366
103.975,-7.011527196
103.976,-7.009065244
103.977,-7.006546948
103.978,-7.003978826
103.979,-7.001385558
103.98,-6.998732686
103.981,-6.996042095
103.982,-6.993314251
103.983,-6.990591995
103.984,-6.987818982
103.985,-6.985023618
103.986,-6.982238498
103.987,-6.979438942
103.988,-6.976617035
103.989,-6.973799784
103.99,-6.971004885
103.991,-6.968179252
103.992,-6.965352222
103.993,-6.962542422
103.994,-6.959731691
103.995,-6.956927944
103.996,-6.954087876
103.997,-6.95128087
103.998,-6.948466878
103.999,-6.945655216
104,-6.942851469
104.001,-6.940011401
104.002,-6.93720486
104.003,-6.934393197
104.004,-6.931602489
104.005,-6.928808521
104.006,-6.926030386
104.007,-6.923263427
104.008,-6.920513697
104.009,-6.917821243
104.01,-6.915200036
104.011,-6.912657991
104.012,-6.910256576
104.013,-6.907831412
104.014,-6.903836504
104.015,-6.899782922
104.016,-6.895832252
104.017,-6.892164238
104.018,-6.889362819
104.019,-6.888260599
104.02,-6.890309509
104.021,-6.897356827
104.022,-6.911076605
104.02299,-6.929012947
104.024,-6.940669846
104.025,-6.95380196
104.026,-6.965293083
104.027,-6.973273586
104.028,-6.977147888
104.029,-6.976766977
104.03,-6.972258445
104.031,-6.963731255
104.032,-6.951310672
104.033,-6.935292389
104.034,-6.916823331
104.035,-6.898238324
104.036,-6.880049594
104.03699,-6.857446395
104.038,-6.84185233
104.039,-6.832122803
104.04,-6.826337427
104.041,-6.823307835
104.042,-6.822759751
104.043,-6.8247905
104.044,-6.828972604
104.045,-6.833638065
104.046,-6.836695597
104.047,-6.836569402
104.048,-6.832875311
104.049,-6.826701574
104.05,-6.819638424
,-6.819638424
,-7.246206515
