Structure Acceleration, RAO-Based Response
Line A: Structure Acceleration, RAO-Based Response - Global RX (Trimaran) [°/s²]
Line B: Structure Acceleration, RAO-Based Response - Global RY (Trimaran) [°/s²]
Line C: Structure Acceleration, RAO-Based Response - Global RZ (Trimaran) [°/s²]

*Time (s),Line A (°/s²),Line B (°/s²),Line C (°/s²)
99.7,-4.68002557754517E-02,1.20338106155396,5.53510040044785E-02
99.701,-4.68005500733852E-02,1.20258140563965,5.53550943732262E-02
99.702,-4.68009188771248E-02,1.20177090167999,5.53589835762978E-02
99.703,-4.68011274933815E-02,1.20096290111542,5.53626865148544E-02
99.70399,-4.68012914061546E-02,1.20014405250549,5.53662180900574E-02
99.70499,-4.68014031648636E-02,1.19932770729065,5.53694628179073E-02
99.70599,-.046801395714283,1.19850039482117,5.53725771605968E-02
99.707,-4.68013547360897E-02,1.19766736030579,5.53754270076752E-02
99.708,-4.68012243509293E-02,1.19683790206909,5.53780756890774E-02
99.709,-4.68010604381561E-02,1.19599831104279,5.53805567324162E-02
99.71,-4.68007437884808E-02,1.19516062736511,.05538285151124
99.711,-4.68002967536449E-02,1.19430494308472,5.53849451243877E-02
99.712,-4.67998795211315E-02,1.19345891475677,5.53867630660534E-02
99.713,-.046799398958683,1.19260168075562,5.53883910179138E-02
99.714,-4.67988029122353E-02,1.1917462348938,5.53898327052593E-02
99.715,-.04679811373353,1.19087386131287,5.53911179304123E-02
99.716,-.046797264367342,1.19000995159149,5.53921386599541E-02
99.717,-4.67964671552181E-02,1.18913614749908,5.53929731249809E-02
99.71799,-4.67954091727734E-02,1.18826425075531,5.53935877978802E-02
99.71899,-4.67943213880062E-02,1.18737494945526,5.53940571844578E-02
99.71999,-4.67931814491749E-02,1.18649446964264,5.53942546248436E-02
99.721,-4.67920191586018E-02,1.18560373783112,5.53942956030369E-02
99.722,-4.67906184494495E-02,1.18470001220703,5.53941130638123E-02
99.723,-4.67893779277802E-02,1.1838071346283,5.53936883807182E-02
99.724,-4.67880219221115E-02,1.18290340900421,5.53931072354317E-02
99.725,-.04678650572896,1.18199503421783,5.53922727704048E-02
99.726,-4.67849038541317E-02,1.18108201026917,5.53912743926048E-02
99.727,-4.67832870781422E-02,1.18016564846039,.055390078574419
99.728,-4.67816591262817E-02,1.17924523353577,5.53886704146862E-02
99.729,-4.67797331511974E-02,1.1783195734024,5.53870536386967E-02
99.73,-4.67778518795967E-02,1.17738974094391,5.53852058947086E-02
99.731,-4.67759259045124E-02,1.17645597457886,5.53831495344639E-02
99.73199,-4.67737428843975E-02,1.17551827430725,5.53809218108654E-02
99.73299,-4.67716343700886E-02,1.17457628250122,5.53784817457199E-02
99.73399,-4.67693358659744E-02,1.17363798618317,5.53759187459946E-02
99.735,-4.67668324708939E-02,1.17267227172852,5.53730241954327E-02
99.736,-4.67643886804581E-02,1.17172491550446,5.53699880838394E-02
99.737,-.04676179215312,1.17075836658478,5.53666949272156E-02
99.738,-4.67591136693954E-02,1.16979503631592,5.53632415831089E-02
99.739,-4.67564016580582E-02,1.16882765293121,5.53595833480358E-02
99.74,-4.67536449432373E-02,1.16785538196564,5.53557276725769E-02
99.741,-4.67507541179657E-02,1.16688001155853,5.53516633808613E-02
99.742,-.046747874468565,1.16590082645416,5.53474240005016E-02
99.743,-4.67448122799397E-02,1.1649090051651,5.53428940474987E-02
99.744,-4.67417128384113E-02,1.16391897201538,5.53381815552711E-02
99.745,-4.67385798692703E-02,1.16293513774872,5.53333349525929E-02
99.74599,-4.67352420091629E-02,1.16193079948425,5.53282350301743E-02
99.74699,-4.67317216098309E-02,1.16093075275421,5.53229711949825E-02
99.74799,-4.67280894517899E-02,1.15991675853729,5.53174130618572E-02
99.749,-.046724583953619,1.15890824794769,5.53117655217648E-02
99.75,-4.67207878828049E-02,1.15788638591766,5.53058162331581E-02
99.751,-4.67169806361198E-02,1.15686964988708,5.52997216582298E-02
99.752,-4.67129684984684E-02,1.15583944320679,5.52933737635612E-02
99.753,-4.67089489102364E-02,1.15481317043304,5.52868619561195E-02
99.754,-.046704888343811,1.15377652645111,5.52801303565502E-02
99.755,-4.67007867991924E-02,1.15274167060852,5.52732050418854E-02
99.756,-4.66965138912201E-02,1.15170383453369,5.52661120891571E-02
99.757,-4.66921590268612E-02,1.15066194534302,5.52587769925594E-02
99.758,-4.66877110302448E-02,1.14961433410645,5.52512556314468E-02
99.759,-4.66830730438232E-02,1.14855587482452,5.52434995770454E-02
99.75999,-4.66784425079823E-02,1.14750123023987,.055235605686903
99.76099,-4.66737113893032E-02,1.14643323421478,5.52273765206337E-02
99.76199,-4.66689728200436E-02,1.14537131786346,5.52190914750099E-02
99.763,-4.66638579964638E-02,1.14428734779358,5.52104488015175E-02
99.764,-4.66588549315929E-02,1.14321506023407,5.52016906440258E-02
99.765,-4.66536581516266E-02,1.14213228225708,5.51927350461483E-02
99.766,-4.66485023498535E-02,1.14105200767517,.055183582007885
99.767,-4.66430261731148E-02,1.13995063304901,5.51740601658821E-02
99.768,-4.66376878321171E-02,1.13886392116547,5.51645494997501E-02
99.769,-4.66320514678955E-02,1.13776433467865,5.51547892391682E-02
99.77,-4.66264151036739E-02,1.13666808605194,5.51448538899422E-02
99.771,-4.66206558048725E-02,1.13556826114655,5.51347099244595E-02
99.772,-4.66147288680077E-02,1.13445568084717,5.51243275403976E-02
99.77299,-4.66087721288204E-02,1.13334715366364,.055113784968853
99.77399,-4.66025173664093E-02,1.13221728801727,5.51028959453106E-02
99.77499,-4.65963743627071E-02,1.13110113143921,5.50919398665428E-02
99.77599,-4.65899631381035E-02,1.12997114658356,5.50807192921638E-02
99.777,-4.65835854411125E-02,1.1288378238678,5.50693199038506E-02
99.778,-.046576913446188,1.12769150733948,5.50576150417328E-02
99.779,-4.65704388916492E-02,1.12655866146088,5.50458803772926E-02
99.78,-4.65637072920799E-02,1.1254141330719,5.50338588654995E-02
99.781,-4.65568564832211E-02,1.12426447868347,5.50216436386108E-02
99.782,-4.65498864650726E-02,1.12310981750488,5.50091974437237E-02
99.783,-4.65428978204727E-02,1.12196183204651,5.49966767430305E-02
99.784,-4.65357564389706E-02,1.12079930305481,5.49838319420815E-02
99.785,-.046528484672308,1.11963212490082,5.49707673490047E-02
99.786,-4.65211383998394E-02,1.11846268177032,5.49575388431549E-02
99.78699,-4.65136170387268E-02,1.11728870868683,5.49441054463387E-02
99.78799,-4.65061962604523E-02,1.1161196231842,5.49305714666843E-02
99.78899,-4.64984402060509E-02,1.11492800712585,5.49166314303875E-02
99.78999,-4.64907884597778E-02,1.11375045776367,5.49027100205421E-02
99.791,-4.64827418327332E-02,1.11254143714905,5.48882558941841E-02
99.792,-4.64748926460743E-02,1.11135649681091,5.48739209771156E-02
99.793,-4.64666336774826E-02,1.11014783382416,5.48591613769531E-02
99.794,-4.64585907757282E-02,1.10895669460297,5.48444800078869E-02
99.795,-4.64501157402992E-02,1.10774850845337,5.48294000327587E-02
99.796,-4.64414581656456E-02,1.10652899742126,5.48140704631805E-02
99.797,-4.64329905807972E-02,1.10532355308533,5.47987446188927E-02
99.798,-4.64242435991764E-02,1.10409474372864,5.47830052673817E-02
99.799,-4.64156046509743E-02,1.1028813123703,5.47672510147095E-02
99.8,-.046406552195549,1.10164475440979,5.47511130571365E-02
99.80099,-.046397477388382,1.10041439533234,5.47348745167255E-02
99.80199,-4.63883578777313E-02,1.09918034076691,5.47184720635414E-02
99.80299,-.046379130333662,1.09794127941132,5.47018125653267E-02
99.80399,-4.63695302605629E-02,1.09668779373169,5.46848326921463E-02
99.805,-4.63600344955921E-02,1.0954418182373,5.46678565442562E-02
99.806,-4.63502965867519E-02,1.09418046474457,5.46504557132721E-02
99.807,-4.63405437767506E-02,1.09292614459991,5.46330437064171E-02
99.808,-4.63307052850723E-02,1.09166646003723,.054615393280983
99.809,-4.63206432759762E-02,1.09039425849915,5.45974373817444E-02
99.81,-4.63108196854591E-02,1.08913731575012,5.45795597136021E-02
99.811,-.046300582587719,1.08785676956177,5.45611716806889E-02
99.812,-4.62903864681721E-02,1.08658242225647,5.45427575707436E-02
99.813,-.046279925853014,1.08529365062714,5.45240081846714E-02
99.814,-4.62693721055984E-02,1.08401107788086,5.45051917433739E-02
99.81499,-4.62585911154747E-02,1.08271467685699,5.44860698282719E-02
99.81599,-4.62477579712868E-02,1.08142328262329,5.44668138027191E-02
99.81699,-4.62366826832294E-02,1.08011853694916,5.44472821056843E-02
99.81799,-4.62257005274296E-02,1.07882070541382,5.44276647269726E-02
99.819,-4.62145209312439E-02,1.0775066614151,5.44077083468437E-02
99.82,-.046203289180994,1.07620060443878,.054387703537941
99.821,-4.61919158697128E-02,1.07489109039307,5.43675124645233E-02
99.822,-4.61802668869495E-02,1.07356560230255,5.43469600379467E-02
99.823,-4.61685955524445E-02,1.07223749160767,5.43262287974358E-02
99.824,-4.61567081511021E-02,1.07090532779694,5.43052889406681E-02
99.825,-.046144749969244,1.06957852840424,5.42842708528042E-02
99.826,-4.61326278746128E-02,1.0682384967804,5.42629547417164E-02
99.827,-4.61204648017883E-02,1.06690442562103,.054241556674242
99.828,-4.61081862449646E-02,1.06555759906769,5.42198717594147E-02
99.82899,-4.60957884788513E-02,1.06421482563019,5.41980899870396E-02
99.82999,-4.60831485688686E-02,1.06285774707794,5.41759356856346E-02
99.83099,-4.60705272853374E-02,1.0615097284317,5.41538037359715E-02
99.832,-.04605732858181,1.06012320518494,5.41309453547001E-02
99.833,-4.60445620119572E-02,1.05876576900482,5.41083477437496E-02
99.834,-.046031691133976,1.05740582942963,5.40856532752514E-02
99.835,-4.60183806717396E-02,1.05602967739105,5.40625378489494E-02
99.836,-4.60049882531166E-02,1.05465018749237,5.40392175316811E-02
99.837,-4.59914989769459E-02,1.05326592922211,5.40156811475754E-02
99.838,-4.59781177341938E-02,1.05189085006714,5.39922118186951E-02
99.839,-4.59641553461552E-02,1.05048811435699,5.39680980145931E-02
99.84,-4.59504798054695E-02,1.04910373687744,5.39441928267479E-02
99.841,-4.59364764392376E-02,1.0477043390274,5.39198778569698E-02
99.842,-4.59222868084908E-02,1.04630196094513,5.38954213261604E-02
99.84299,-4.59080301225185E-02,1.04489493370056,5.38707226514816E-02
99.84399,-4.58937734365463E-02,1.04349565505981,5.38460835814476E-02
99.84499,-4.58790771663189E-02,1.04206967353821,.053820788860321
99.846,-4.58644554018974E-02,1.04065084457397,5.37955164909363E-02
99.847,-4.58496585488319E-02,1.03922843933105,5.37700541317463E-02
99.848,-4.58345897495747E-02,1.03780269622803,5.37444092333317E-02
99.849,-4.58195880055428E-02,1.0363734960556,5.37185817956924E-02
99.85,-4.58044148981571E-02,1.03494024276733,5.36925457417965E-02
99.851,-4.57891449332237E-02,1.0335019826889,5.36662936210632E-02
99.852,-.045773733407259,1.03206026554108,5.36398440599442E-02
99.853,-.045758094638586,1.03061521053314,.053613219410181
99.854,-4.57423217594624E-02,1.02916622161865,5.35864271223545E-02
99.855,-4.57264930009842E-02,1.0277134180069,5.35593889653683E-02
99.856,-4.57103028893471E-02,1.02624452114105,5.35319969058037E-02
99.85699,-4.56943660974503E-02,1.02479684352875,5.35048320889473E-02
99.85799,-4.56778630614281E-02,1.02332007884979,5.34770078957081E-02
99.85899,-4.56613823771477E-02,1.02185153961182,5.34491986036301E-02
99.86,-4.56449389457703E-02,1.02037978172302,5.34212253987789E-02
99.861,-4.56280000507832E-02,1.01889324188232,5.33928647637367E-02
99.862,-4.56111282110214E-02,1.01741325855255,.053364485502243
99.863,-4.55940440297127E-02,1.01591873168945,5.33357262611389E-02
99.864,-4.55771423876286E-02,1.01444292068481,5.33071793615818E-02
99.865,-4.55596260726452E-02,1.01294147968292,.053278062492609
99.866,-4.55422252416611E-02,1.01144695281982,5.32489083707333E-02
99.867,-4.55244183540344E-02,1.00993716716766,5.32193966209888E-02
99.868,-4.55067306756973E-02,1.0084353685379,5.31898736953735E-02
99.869,-4.54886630177498E-02,1.00691711902618,5.31599447131157E-02
99.87,-4.54709753394127E-02,1.00542032718658,.053130317479372
99.87099,-4.54525724053383E-02,1.00389528274536,5.31000196933746E-02
99.87199,-.045434258878231,1.00237810611725,5.30697107315064E-02
99.87299,-4.54158261418343E-02,1.00085735321045,5.30392788350582E-02
99.874,-.04539680108428,.99930876493454,.053008146584034
99.875,-.045378141105175,.997781157493591,5.29773011803627E-02
99.876,-.045359168201685,.996237516403198,5.29460348188877E-02
99.877,-4.53401803970337E-02,.994702458381653,5.29148280620575E-02
99.878,-4.53207455575466E-02,.993151128292084,5.28831705451012E-02
99.879,-4.53015118837357E-02,.99160647392273,5.28515391051769E-02
99.88,-4.52819280326366E-02,.990048825740814,5.28195388615131E-02
99.881,-4.52622659504414E-02,.988497734069824,5.27875609695911E-02
99.882,-4.52419593930244E-02,.986919224262238,5.27548789978027E-02
99.883,-.045222096145153,.98536217212677,5.27225285768509E-02
99.884,-4.52021732926369E-02,.983800709247589,5.26899918913841E-02
99.88499,-4.51817065477371E-02,.982223987579346,5.26570305228233E-02
99.88599,-4.51613143086433E-02,.980654895305634,5.26241026818752E-02
99.88699,-4.51404936611652E-02,.979070723056793,5.25907278060913E-02
99.888,-4.51193861663342E-02,.977470278739929,5.25569282472134E-02
99.889,-4.50984910130501E-02,.975878775119781,5.25232069194317E-02
99.89,-4.50776293873787E-02,.974295437335968,5.24895638227463E-02
99.891,-.045056164264679,.97269469499588,5.24554140865803E-02
99.892,-4.50346581637859E-02,.971092939376831,5.24211227893829E-02
99.893,-4.50130999088287E-02,.969486773014069,.052386611700058
99.894,-4.49916273355484E-02,.967888057231903,5.23521825671196E-02
99.895,-4.49694395065308E-02,.96626216173172,5.23170530796051E-02
99.896,-.044947687536478,.964657306671143,.052282277494669
99.897,-4.49255518615246E-02,.963036715984344,5.22470436990261E-02
99.89799,-.044903215020895,.961412191390991,5.22116124629974E-02
99.89899,-4.48810085654259E-02,.959796786308289,5.21762892603874E-02
99.89999,-4.48579527437687E-02,.958151996135712,.052140187472105
99.90099,-4.48353327810764E-02,.956529676914215,5.21044842898846E-02
99.902,-4.48117107152939E-02,.954863548278809,5.20677007734776E-02
99.903,-4.47888523340225E-02,.953233778476715,5.20316287875175E-02
99.904,-4.47653234004974E-02,.951575458049774,5.19948154687881E-02
99.905,-4.47418428957462E-02,.949925422668457,5.19580841064453E-02
99.906,-.044718187302351,.948271989822388,5.19211664795876E-02
99.907,-4.46944124996662E-02,.94661557674408,5.18840625882149E-02
99.908,-.044670470058918,.944955408573151,5.18467873334885E-02
99.909,-4.46463003754616E-02,.943290770053864,5.18092848360538E-02
99.91,-4.46219965815544E-02,.941622912883759,5.17716370522976E-02
99.911,-4.45975176990032E-02,.939951539039612,5.17337881028652E-02
99.91199,-4.45728898048401E-02,.938276886940003,5.16957603394985E-02
99.91299,-4.45477999746799E-02,.936586260795593,5.16572631895542E-02
99.91399,-4.45228517055511E-02,.934903919696808,.051618866622448
99.91499,-4.44977283477783E-02,.933219134807587,5.15802912414074E-02
99.916,-4.44721952080727E-02,.931517004966736,5.15412166714668E-02
99.917,-4.44465205073357E-02,.929811179637909,5.15019670128822E-02
99.918,-4.44209463894367E-02,.928114712238312,5.14628067612648E-02
99.919,-4.43948619067669E-02,.926401853561401,5.14231957495213E-02
99.92,-4.43689078092575E-02,.924699068069458,5.13837076723576E-02
99.921,-4.43424545228481E-02,.922979593276978,5.13437204062939E-02
99.922,-4.43164519965649E-02,.92128324508667,5.13041578233242E-02
99.923,-4.42899651825428E-02,.919569730758667,5.12641370296478E-02
99.924,-4.42630685865879E-02,.917840003967285,5.12236058712006E-02
99.925,-4.42362762987614E-02,.916119813919067,5.11831864714622E-02
99.92599,-4.42090705037117E-02,.914382517337799,.051142293959856
99.92699,-4.41819652915001E-02,.91265594959259,5.11015392839909E-02
99.92799,-4.41540218889713E-02,.910897493362427,5.10599166154861E-02
99.92899,-4.41266261041164E-02,.909163475036621,5.10187894105911E-02
99.93,-4.40984554588795E-02,.907399594783783,5.09768761694431E-02
99.931,-4.40706163644791E-02,.905657589435577,5.09353466331959E-02
99.932,-4.40424121916294E-02,.903900742530823,.050893384963274
99.933,-4.40143421292305E-02,.902151763439178,5.08515015244484E-02
99.934,-4.39860448241234E-02,.90040123462677,5.08094877004623E-02
99.935,-.04395692050457,.898618340492249,5.07665872573853E-02
99.936,-4.39283587038517E-02,.896860539913177,5.07242009043694E-02
99.937,-4.38992604613304E-02,.895085871219635,5.06813265383244E-02
99.938,-4.38700579106808E-02,.893307268619537,5.06382286548615E-02
99.939,-4.38406318426132E-02,.891524255275726,5.05949519574642E-02
99.93999,-4.38114069402218E-02,.889753758907318,5.05518764257431E-02
99.94099,-4.37812842428684E-02,.887951612472534,5.05079180002213E-02
99.94199,-4.37516383826733E-02,.886172890663147,5.04644550383091E-02
99.94299,-4.37211692333221E-02,.884363234043121,5.04201427102089E-02
99.944,-4.36909645795822E-02,.88256424665451,5.03759644925594E-02
99.945,-4.36601974070072E-02,.880748450756073,5.03312759101391E-02
99.946,-4.36299778521061E-02,.878957509994507,5.02871423959732E-02
99.947,-4.35992181301117E-02,.877147316932678,5.02424314618111E-02
99.948,-4.35682497918606E-02,.875335514545441,5.01975603401661E-02
99.949,-4.35370318591595E-02,.873519241809845,5.01524992287159E-02
99.95,-4.35057319700718E-02,.8717001080513,5.01072518527508E-02
99.951,-4.34742644429207E-02,.869877874851227,5.00618442893028E-02
99.952,-4.34422977268696E-02,.86803787946701,5.00159375369549E-02
99.953,-4.34108711779118E-02,.866223037242889,4.99705597758293E-02
99.95399,-4.33784686028957E-02,.864376962184906,4.99242544174194E-02
99.95499,-4.33463118970394E-02,.862541973590851,.049878153949976
99.95599,-4.33135665953159E-02,.860687494277954,4.98314648866653E-02
99.957,-4.32807058095932E-02,.85883092880249,4.97846603393555E-02
99.958,-4.32479307055473E-02,.856985986232758,4.97380383312702E-02
99.959,-4.32150177657604E-02,.855136573314667,4.96912114322186E-02
99.96,-.043181948363781,.853285193443298,4.96442392468452E-02
99.961,-4.31482866406441E-02,.85141521692276,4.95967194437981E-02
99.962,-4.31148298084736E-02,.849556624889374,.049549363553524
99.963,-4.30808067321777E-02,.847680389881134,4.95015121996403E-02
99.964,-4.30470407009125E-02,.845814645290375,.049453791230917
99.965,-4.30127270519733E-02,.843932271003723,4.94055785238743E-02
99.966,-4.29785437881947E-02,.842060148715973,4.93575222790241E-02
99.967,-.042943462729454,.840156078338623,4.93085756897926E-02
99.96799,-.042908962816,.838279068470001,4.92602437734604E-02
99.96899,-4.28738594055176E-02,.836382150650024,4.92112748324871E-02
99.96999,-4.28390055894852E-02,.834497630596161,4.91625480353832E-02
99.971,-4.28027212619781E-02,.83256584405899,4.91124987602234E-02
99.972,-4.27674800157547E-02,.830674946308136,.049063440412283
99.973,-4.27321270108223E-02,.828781366348267,4.90142107009888E-02
99.974,-4.26957421004772E-02,.826854050159454,4.89640273153782E-02
99.975,-4.26599644124508E-02,.824954092502594,4.89144660532475E-02
99.976,-4.26235944032669E-02,.823036253452301,4.88643422722816E-02
99.977,-4.25870232284069E-02,.821113526821136,4.88140061497688E-02
99.978,-4.25502099096775E-02,.819189131259918,4.87635135650635E-02
99.979,-4.25132587552071E-02,.817260503768921,.048712857067585
99.98,-4.24760840833187E-02,.815330624580383,4.86620664596558E-02
99.981,-4.24387082457542E-02,.813395798206329,.048611044883728
99.98199,-4.24008294939995E-02,.811443746089935,4.85594980418682E-02
99.98299,-4.23634946346283E-02,.809518158435822,4.85085546970367E-02
99.98399,-4.23251166939735E-02,.807558834552765,4.84566278755665E-02
99.985,-4.22866269946098E-02,.80559629201889,4.84045520424843E-02
99.986,-4.22483906149864E-02,.803646743297577,4.83526885509491E-02
99.987,-4.22099232673645E-02,.801693081855774,.048300676047802
99.988,-4.21712286770344E-02,.79973691701889,4.82484959065914E-02
99.989,-4.21319492161274E-02,.797762811183929,4.81957569718361E-02
99.99,-4.20928709208965E-02,.795799195766449,4.81431931257248E-02
99.991,-4.20531779527664E-02,.793818950653076,4.80901002883911E-02
99.992,-4.20137085020542E-02,.791849374771118,4.80372421443462E-02
99.993,-4.19736206531525E-02,.789863228797913,4.79838140308857E-02
99.994,-4.19337786734104E-02,.787887573242188,4.79305982589722E-02
99.995,-4.18932698667049E-02,.785894274711609,4.78767976164818E-02
