Structure Acceleration, RAO-Based Response
Line A: Structure Acceleration, RAO-Based Response - Global RX (Trimaran) [°/s²]
Line B: Structure Acceleration, RAO-Based Response - Global RY (Trimaran) [°/s²]
Line C: Structure Acceleration, RAO-Based Response - Global RZ (Trimaran) [°/s²]

*Time (s),Line A (°/s²),Line B (°/s²),Line C (°/s²)
99.4,.149223431944847,.678707897663116,.1692283898592
99.401,.148966714739799,.683829784393311,.169139266014099
99.402,.148707181215286,.688991010189056,.169048771262169
99.403,.148449257016182,.694108128547668,.168958440423012
99.404,.148190721869469,.699222505092621,.168867498636246
99.405,.147929579019547,.704376041889191,.168775215744972
99.406,.147670090198517,.709485828876495,.168683081865311
99.40701,.147405803203583,.714676022529602,.168588846921921
99.408,.147145196795464,.719780683517456,.168495506048203
99.409,.146881982684135,.724924266338348,.168400719761848
99.41,.1466204226017,.730023741722107,.168306201696396
99.411,.146356001496315,.735162258148193,.168210312724113
99.412,.146093368530273,.740256488323212,.168114617466927
99.413,.145828083157539,.745389640331268,.168017536401749
99.414,.145564392209053,.750477850437164,.167920589447021
99.415,.145300224423409,.755564272403717,.167823106050491
99.416,.145033419132233,.760689437389374,.16772423684597
99.417,.144768372178078,.765770435333252,.167625561356544
99.418,.144500538706779,.770890057086945,.167525485157967
99.419,.14423443377018,.775965750217438,.167425647377968
99.42,.143965601921082,.781079828739166,.167324364185333
99.42101,.143696397542953,.786192238330841,.167222544550896
99.422,.143426641821861,.791300654411316,.167120084166527
99.423,.143158838152885,.796365141868591,.167017981410027
99.424,.14288817346096,.801467895507813,.166914343833923
99.425,.142619371414185,.806527316570282,.16681095957756
99.426,.142347872257233,.811623513698578,.166706174612045
99.427,.142078161239624,.816676795482635,.166601583361626
99.428,.141807973384857,.821727097034454,.166496455669403
99.429,.141535088419914,.826816260814667,.1663898229599
99.43,.141263976693153,.831859648227692,.166283473372459
99.431,.140990316867828,.836943566799164,.166175693273544
99.432,.140718534588814,.84198135137558,.166068196296692
99.433,.140444025397301,.847057819366455,.165959239006042
99.434,.140171408653259,.852088570594788,.165850594639778
99.43501,.139894157648087,.857200145721436,.165739580988884
99.436,.139618709683418,.862268328666687,.165628865361214
99.437,.139342948794365,.867333769798279,.165517568588257
99.438,.139068976044655,.872352123260498,.165406569838524
99.439,.138792380690575,.877410471439362,.165294095873833
99.44,.138517871499062,.882423758506775,.165181934833527
99.441,.138243123888969,.887435674667358,.165069177746773
99.442,.137965679168701,.892483294010162,.164954945445061
99.443,.137690320611,.897486329078674,.164841070771217
99.444,.137412384152412,.902530014514923,.164725691080093
99.445,.137136682868004,.90752637386322,.164610654115677
99.446,.136858269572258,.912562608718872,.164494082331657
99.447,.136582121253014,.917553842067719,.16437791287899
99.448,.136301174759865,.922621726989746,.164259299635887
99.44901,.136022388935089,.927648901939392,.164140999317169
99.45,.135743528604507,.932671070098877,.164022132754326
99.451,.13546696305275,.937649250030518,.163903683423996
99.452,.135187909007072,.942665338516235,.16378365457058
99.453,.134911119937897,.947635412216187,.163664057850838
99.454,.134634345769882,.952603697776794,.163543939590454
99.455,.13435323536396,.957648456096649,.163421228528023
99.456,.134076610207558,.962612092494965,.163299947977066
99.457,.133798032999039,.967608869075775,.163177073001862
99.458,.133522033691406,.972561717033386,.163054674863815
99.459,.133243605494499,.977553963661194,.162930727005005
99.46,.132968008518219,.982500553131103,.16280722618103
99.461,.132688254117966,.987524032592774,.162681132555008
99.462,.132413193583488,.992463946342468,.162556543946266
99.46301,.132134139537811,.997479975223541,.162429258227348
99.464,.131860285997391,1.00241327285767,.162303566932678
99.465,.131587103009224,1.0073424577713,.162177294492722
99.466,.131309896707535,1.01234841346741,.162048414349556
99.467,.131038174033165,1.01726806163788,.161921098828316
99.468,.130765050649643,1.0222270488739,.161792173981667
99.469,.13049504160881,1.02714014053345,.161663740873337
99.47,.130223959684372,1.03209042549133,.16153372824192
99.471,.129953965544701,1.03703808784485,.161403208971024
99.472,.129685506224632,1.04198026657104,.161272123456001
99.473,.129420816898346,1.0468772649765,.161141604185104
99.474,.129153072834015,1.05185258388519,.161008477210999
99.475,.128891676664352,1.05674302577972,.160876885056496
99.476,.128630056977272,1.06166911125183,.160743772983551
99.47701,.128370597958565,1.06659066677094,.160610154271126
99.478,.128113642334938,1.07150840759277,.16047602891922
99.479,.127859175205231,1.07642340660095,.160341411828995
99.48,.127609923481941,1.08129072189331,.160207405686378
99.481,.127359300851822,1.08623707294464,.160070717334747
99.482,.127116993069649,1.09109795093536,.159935802221298
99.483,.126873895525932,1.09603369235992,.159798175096512
99.484,.126639828085899,1.10088670253754,.159662380814552
99.485,.12640792131424,1.10577309131622,.159525007009506
99.486,.126181304454803,1.11065793037415,.159387141466141
99.487,.12596021592617,1.11553347110748,.15924896299839
99.488,.125745296478271,1.12040996551514,.159110337495804
99.489,.12553696334362,1.12527596950531,.158971324563026
99.49,.125335648655891,1.13014042377472,.158831998705864
99.491,.125142306089401,1.13499879837036,.158692210912704
99.492,.124957486987114,1.13985395431519,.158552125096321
99.493,.124781675636768,1.14469981193542,.158411771059036
99.494,.124613426625729,1.14958143234253,.158269912004471
99.495,.124460615217686,1.15438055992126,.158130079507828
99.496,.124314591288567,1.15925240516663,.157987684011459
99.497,.124185793101788,1.16403901576996,.157847329974174
99.498,.124065600335598,1.16889846324921,.157704472541809
99.499,.123962409794331,1.17371261119843,.157562553882599
99.5,.123874582350254,1.17852175235748,.157420501112938
99.501,.123803488910198,1.18332552909851,.157278254628181
99.502,.123747833073139,1.18815767765045,.157134741544724
99.503,.123715966939926,1.19290864467621,.156993523240089
99.504,.123702213168144,1.19769155979156,.156851038336754
99.505,.123705640435219,1.20254361629486,.156706154346466
99.506,.12373960018158,1.20727264881134,.156564921140671
99.507,.123793967068195,1.21207296848297,.156421273946762
99.508,.123877570033073,1.21682620048523,.156278982758522
99.509,.123987264931202,1.22160851955414,.15613554418087
99.51,.124129951000214,1.22634637355804,.155993551015854
99.511,.124303080141544,1.23111188411713,.155850559473038
99.512,.124513283371925,1.23583102226257,.155709072947502
99.513,.124760545790195,1.24054193496704,.155567914247513
99.514,.125047534704208,1.24524426460266,.155427128076553
99.515,.125374183058739,1.24997079372406,.155285552144051
99.516,.125748038291931,1.25465297698975,.155145674943924
99.517,.126169845461845,1.25932216644287,.155006483197212
99.518,.126640141010284,1.26401889324188,.154866546392441
99.519,.127164840698242,1.2687041759491,.154727309942245
99.52,.127745047211647,1.2734158039093,.154587611556053
99.521,.128391236066818,1.27803719043732,.154451310634613
99.522,.129100516438484,1.28268313407898,.154314666986465
99.523,.129881575703621,1.28727674484253,.154180377721786
99.524,.130734413862228,1.29189455509186,.154045894742012
99.525,.131668448448181,1.29645645618439,.153914034366608
99.526,.132684290409088,1.30104243755341,.153782159090042
99.527,.133789569139481,1.3056093454361,.153651744127274
99.528,.134989932179451,1.31015801429749,.153522908687592
99.529,.136293455958366,1.31464946269989,.153397098183632
99.53,.137702971696854,1.31915771961212,.153271898627281
99.531,.139227584004402,1.32364284992218,.153148651123047
99.53201,.14087487757206,1.3281055688858,.153027594089508
99.533,.142650976777077,1.3325788974762,.152907520532608
99.534,.144569903612137,1.3369505405426,.152792721986771
99.535,.146634191274643,1.3413690328598,.152677834033966
99.536,.14886049926281,1.34567987918854,.152568653225899
99.537,.151254594326019,1.34999465942383,.152461290359497
99.538,.153829902410507,1.35427486896515,.15235735476017
99.539,.156598851084709,1.35851526260376,.152257055044174
99.54,.15957473218441,1.3627108335495,.152160748839378
99.541,.16277077794075,1.36690080165863,.152067333459854
99.542,.166207358241081,1.37096643447876,.151981234550476
99.543,.169896870851517,1.37501430511475,.151898711919785
99.544,.173859849572182,1.37900400161743,.151821598410606
99.545,.178115770220757,1.38292586803436,.151750281453133
99.54601,.18268509209156,1.38685071468353,.151682361960411
99.547,.187596052885056,1.390625,.151623964309692
99.548,.192872002720833,1.39431083202362,.151572972536087
99.549,.198541775345802,1.39790296554565,.15152981877327
99.55,.204636573791504,1.40142571926117,.151493847370148
99.551,.21119099855423,1.40479302406311,.151468575000763
99.552,.21824249625206,1.40802943706512,.151453450322151
99.553,.225832626223564,1.41111791133881,.151449367403984
99.554,.234007462859154,1.41404414176941,.151457220315933
99.555,.242817610502243,1.41681969165802,.151476755738258
99.556,.252318650484085,1.41935074329376,.151512056589127
99.557,.262574225664139,1.42168259620667,.151561558246613
99.558,.273651599884033,1.42370700836182,.151629701256752
99.559,.285630583763123,1.42546260356903,.151715278625488
99.56001,.298596143722534,1.42686808109283,.151821628212929
99.561,.312645137310028,1.4278724193573,.151950985193253
99.562,.327883183956146,1.42837584018707,.15210722386837
99.563,.344435721635818,1.42837798595428,.152290210127831
99.564,.362435013055801,1.42772245407104,.15250600874424
99.565,.382040113210678,1.42637145519257,.152755364775658
99.566,.403418034315109,1.42413020133972,.153045400977135
99.567,.426767408847809,1.42087996006012,.15337935090065
99.568,.452313125133514,1.41647052764893,.153761222958565
99.569,.480294972658157,1.4106034040451,.154200449585915
99.57,.511001288890839,1.40306925773621,.154701426625252
99.571,.544730842113495,1.39344716072083,.155275940895081
99.572,.581841945648193,1.38138365745544,.155931085348129
99.573,.62269526720047,1.36626768112183,.156681597232819
99.57401,.667717814445496,1.34753036499023,.157536789774895
99.575,.717292487621307,1.32420384883881,.158519268035889
99.576,.771849155426025,1.29533219337463,.159643039107323
99.577,.831716001033783,1.25954055786133,.160933375358582
99.578,.897128283977509,1.2152806520462,.16241167485714
99.579,.967978775501251,1.16057109832764,.16410756111145
99.58,1.04377853870392,1.09320092201233,.166047155857086
99.581,1.12340760231018,1.01068568229675,.168257102370262
99.582,1.2047803401947,.910376191139221,.17076563835144
99.583,1.27828121185303,.802977561950684,.162317365407944
99.584,1.34761953353882,.676858186721802,.153022512793541
99.585,1.40811800956726,.532282829284668,.142954781651497
99.586,1.45450389385223,.371575802564621,.132258832454681
99.587,1.48218977451324,.199639797210693,.121151030063629
99.58801,1.4881945848465,2.33696792274714E-02,.109918214380741
99.589,1.47218978404999,-.14941531419754,9.88690182566643E-02
99.59,1.44825673103333,-.293119609355927,.086684063076973
99.591,1.41726469993591,-.418583303689957,7.47167989611626E-02
99.592,1.37887895107269,-.531006097793579,6.37460723519325E-02
99.593,1.33621537685394,-.629678189754486,5.38437142968178E-02
99.594,1.29196834564209,-.715074062347412,4.50048670172691E-02
99.595,1.24800658226013,-.788303315639496,3.71765866875648E-02
99.596,1.20571780204773,-.850841403007507,3.02763618528843E-02
99.597,1.16588842868805,-.90417468547821,2.42117401212454E-02
99.598,1.12894630432129,-.949701428413391,1.88893470913172E-02
99.599,1.09504914283752,-.988648891448975,1.42213348299265E-02
99.6,1.06423139572144,-1.0220992565155,1.01285986602306E-02
99.601,1.03834974765778,-1.05287551879883,6.63546845316887E-03
99.60201,1.01612424850464,-1.080890417099,3.62731073983014E-03
99.603,.996052920818329,-1.10539126396179,9.92751214653254E-04
99.604,.978074908256531,-1.12691152095795,-1.31114292889833E-03
99.605,.962082445621491,-1.14587223529816,-3.32140387035906E-03
99.606,.9479119181633,-1.16255867481232,-5.07141556590796E-03
99.607,.935495138168335,-1.17732107639313,-6.58727390691638E-03
99.608,.924679458141327,-1.1903475522995,-7.89438188076019E-03
99.609,.9153813123703,-1.20187151432037,-9.01253335177898E-03
99.61,.907461404800415,-1.2120076417923,-9.96143370866776E-03
99.611,.900873064994812,-1.22096884250641,-1.07548963278532E-02
99.612,.895492017269135,-1.22882235050201,-1.14084668457508E-02
99.613,.891250014305115,-1.23569250106812,-1.19339842349291E-02
99.614,.888059258460999,-1.2416478395462,-1.23429773375392E-02
99.615,.885883808135986,-1.24682331085205,-1.26437125727534E-02
99.616,.884623825550079,-1.25122892856598,-1.28466142341495E-02
99.617,.884216010570526,-1.25492119789124,-1.29597336053848E-02
99.618,.884628415107727,-1.25799489021301,-1.29892332479358E-02
99.619,.885791063308716,-1.26047205924988,-.012942430563271
99.62,.887653052806854,-1.26239609718323,-1.28255197778344E-02
99.621,.890154898166656,-1.26378726959229,-1.26447575166821E-02
99.622,.893256425857544,-1.26469671726227,-1.24050891026855E-02
99.623,.896912038326263,-1.26515567302704,-1.21116153895855E-02
99.624,.901087522506714,-1.26521456241608,-1.17686167359352E-02
99.625,.905718624591828,-1.26486754417419,-1.13818747922778E-02
99.626,.910768926143646,-1.26415741443634,-1.09552945941687E-02
99.627,.916197538375855,-1.26311361789703,-1.04932766407728E-02
99.628,.921962738037109,-1.26176619529724,-1.00001618266106E-02
99.629,.928019642829895,-1.26014089584351,-9.48012061417103E-03
99.63,.934324622154236,-1.25826799869537,-8.93749482929707E-03
99.631,.940844893455505,-1.25619864463806,-8.37619323283434E-03
99.632,.947496235370636,-1.25391459465027,-7.80251901596785E-03
99.633,.95426344871521,-1.25150799751282,-7.21973599866033E-03
99.634,.96107017993927,-1.24898612499237,-6.63407566025853E-03
99.635,.96788626909256,-1.24643075466156,-6.04983605444431E-03
99.636,.9746333360672,-1.24385261535645,-5.47310756519437E-03
99.637,.981282711029053,-1.24133455753326,-4.90823946893215E-03
99.638,.987757980823517,-1.23889088630676,-4.36113681644201E-03
99.639,.994033515453339,-1.23660564422607,-3.83590254932642E-03
99.64,1.00003504753113,-1.23449647426605,-3.33828758448362E-03
99.641,1.00573420524597,-1.2326500415802,-2.87254061549902E-03
99.642,1.01105439662933,-1.23108768463135,-2.44461162947118E-03
99.643,1.01596438884735,-1.22990083694458,-2.05897027626634E-03
99.644,1.02038240432739,-1.22912001609802,-1.72203814145178E-03
99.645,1.02425944805145,-1.22882723808289,-1.43916136585176E-03
99.646,1.02753949165344,-1.22910714149475,-1.21626141481102E-03
99.647,1.03011512756348,-1.22998797893524,-1.06096547096968E-03
99.648,1.03195703029633,-1.23161125183105,-9.78800584562123E-04
99.649,1.03292989730835,-1.23399615287781,-9.78709780611098E-04
99.65,1.03298795223236,-1.23729491233826,-1.06711033731699E-03
99.651,1.03197979927063,-1.2415372133255,-1.25412759371102E-03
99.652,1.02983498573303,-1.24688076972961,-1.54729385394603E-03
99.653,1.02637803554535,-1.25336456298828,-1.95800978690386E-03
99.654,1.02150857448578,-1.2611528635025,-2.4952027015388E-03
99.655,1.01501858234406,-1.27028858661652,-3.17179504781961E-03
99.656,1.00674831867218,-1.28090763092041,-3.99892590939999E-03
99.65701,.996524393558502,-1.29316127300262,-4.98813576996326E-03
99.658,.98404723405838,-1.30704736709595,-6.15570787340403E-03
99.659,.969104170799255,-1.3227196931839,-7.51426862552762E-03
99.66,.951384723186493,-1.34021723270416,-9.07974317669868E-03
99.661,.930588722229004,-1.35962116718292,-.010866723023355
99.662,.906344771385193,-1.38091659545898,-1.28922592848539E-02
99.663,.878290474414825,-1.40411722660065,-.015171131119132
99.664,.846001088619232,-1.42910587787628,-1.77199579775333E-02
99.665,.809076607227325,-1.45577371120453,-.020551398396492
99.666,.767080307006836,-1.48382425308228,-2.36792527139187E-02
99.667,.719656944274902,-1.51299512386322,-2.71085146814585E-02
99.668,.666456818580627,-1.54275739192963,-3.08456346392632E-02
99.669,.607274293899536,-1.57259702682495,-3.48845832049847E-02
99.67,.54202401638031,-1.60180461406708,-3.92147898674011E-02
99.67101,.470822602510452,-1.62960648536682,-4.38154824078083E-02
99.672,.394020140171051,-1.65516674518585,-4.86553981900215E-02
99.673,.312229990959167,-1.67762815952301,-5.36938533186913E-02
99.674,.226334542036057,-1.69625222682953,-5.88780306279659E-02
99.675,.129241049289703,-1.71684002876282,-6.33372589945793E-02
99.676,2.48853284865618E-02,-1.73498809337616,-6.73547387123108E-02
99.677,-8.05752500891685E-02,-1.74634218215942,-7.13422298431396E-02
99.678,-.185378327965736,-1.75101029872894,-7.52397328615189E-02
99.679,-.287767708301544,-1.74927461147308,-7.90051817893982E-02
99.68,-.386205911636353,-1.74187552928925,-8.25893878936768E-02
99.681,-.479349195957184,-1.72969174385071,-8.59581530094147E-02
99.682,-.566135823726654,-1.71379828453064,-8.90801101922989E-02
99.683,-.645799994468689,-1.69539022445679,-9.19259563088417E-02
99.684,-.717738151550293,-1.67556869983673,-9.44814085960388E-02
99.68501,-.781632423400879,-1.65553402900696,-9.67219993472099E-02
99.686,-.837175250053406,-1.63626599311829,-9.86423939466476E-02
99.687,-.884222328662872,-1.61876916885376,-.100226275622845
99.688,-.922585010528565,-1.60388386249542,-.101466052234173
99.689,-.952136516571045,-1.59243977069855,-.10234247148037
99.69,-.972602307796478,-1.58508133888245,-.102846123278141
99.691,-.983668088912964,-1.5823929309845,-.102959021925926
99.692,-.984872937202454,-1.58478784561157,-.102666273713112
99.693,-.975687861442566,-1.59255456924438,-.101947531104088
99.694,-.955430805683136,-1.60570728778839,-.100789621472359
99.695,-.923452138900757,-1.62404441833496,-.09917301684618
99.696,-.879132926464081,-1.64698958396912,-9.70868840813637E-02
99.697,-.821963846683502,-1.67345583438873,-9.45417881011963E-02
99.698,-.751980364322662,-1.70205652713776,-9.15448218584061E-02
99.69901,-.669706463813782,-1.73083710670471,-8.81441459059715E-02
99.7,-.576621890068054,-1.757692694664,-8.44014585018158E-02
99.701,-.475170344114304,-1.78048896789551,-.080412782728672
99.702,-.368797868490219,-1.7975172996521,-7.62957185506821E-02
99.703,-.261665970087051,-1.80778443813324,-7.21901953220367E-02
99.704,-.158262223005295,-1.81130981445313,-6.82394579052925E-02
99.705,-6.28713294863701E-02,-1.80904006958008,-6.45874887704849E-02
99.706,2.07677632570267E-02,-1.80278527736664,-6.13568089902401E-02
99.707,8.96977782249451E-02,-1.79476606845856,-5.86520694196224E-02
99.708,.141720131039619,-1.78718268871307,-5.65637461841106E-02
99.709,.175162255764008,-1.78209984302521,-5.51553033292294E-02
99.71,.187895327806473,-1.78175795078278,-5.44089302420616E-02
99.711,.18099470436573,-1.78466248512268,-.054595835506916
99.712,.150832757353783,-1.79308903217316,-5.55264055728912E-02
99.71301,9.69759970903397E-02,-1.80524122714996,-5.72969578206539E-02
99.714,1.86544340103865E-02,-1.81882727146149,-5.99132142961025E-02
99.715,-8.38581025600433E-02,-1.83050882816315,-6.33333474397659E-02
99.716,-.208335295319557,-1.83603274822235,-6.74684941768646E-02
99.717,-.349919199943543,-1.83131527900696,-7.21472948789597E-02
99.718,-.500891208648682,-1.81351923942566,-7.71356150507927E-02
99.719,-.651633620262146,-1.78255248069763,-8.21358263492584E-02
99.72,-.792287111282349,-1.7414368391037,-8.68383795022964E-02
99.721,-.914531171321869,-1.69572985172272,-9.09625962376595E-02
99.722,-1.01260805130005,-1.65218687057495,-9.42792072892189E-02
99.723,-1.08315253257751,-1.61722910404205,-9.66294184327126E-02
99.724,-1.1245208978653,-1.59605407714844,-9.78977382183075E-02
99.725,-1.13568210601807,-1.59194874763489,-9.80243012309074E-02
