Structure Acceleration, RAO-Based Response
Line A: Structure Acceleration, RAO-Based Response - Global RX (Trimaran) [°/s²]
Line B: Structure Acceleration, RAO-Based Response - Global RY (Trimaran) [°/s²]
Line C: Structure Acceleration, RAO-Based Response - Global RZ (Trimaran) [°/s²]

*Time (s),Line A (°/s²),Line B (°/s²),Line C (°/s²)
99.4,.193763643503189,.686664044857025,.178763121366501
99.401,.193479403853416,.691589295864105,.17867648601532
99.402,.193192169070244,.696551918983459,.178588554263115
99.403,.192906484007835,.701472342014313,.178500652313232
99.404,.192620173096657,.706390023231506,.178412154316902
99.405,.192330718040466,.711345434188843,.178322300314903
99.406,.192043036222458,.716258108615875,.178232550621033
99.40701,.191749900579453,.721248269081116,.178140670061111
99.408,.191460639238358,.726156294345856,.178049609065056
99.409,.191168457269669,.731101453304291,.177957206964493
99.41,.190877869725227,.736003577709198,.177864894270897
99.411,.190584391355515,.740943372249603,.177771225571632
99.412,.190292537212372,.745840549468994,.177677690982819
99.413,.189997717738152,.75077497959137,.177582755684853
99.414,.189704433083534,.755667686462402,.177487939596176
99.415,.189410626888275,.760557055473328,.177392527461052
99.416,.189113765954971,.765483498573303,.177295684814453
99.417,.188818544149399,.770367562770844,.177198961377144
99.418,.188520401716232,.77528840303421,.177100852131844
99.419,.188223972916603,.780166923999786,.177002921700478
99.42,.187924459576607,.785082042217255,.176903560757637
99.42101,.187624275684357,.789994776248932,.176803559064865
99.422,.187323540449142,.79490453004837,.176702946424484
99.423,.18702457845211,.79977160692215,.176602512598038
99.424,.186722546815872,.804675698280334,.176500603556633
99.425,.186422526836395,.809536576271057,.176398918032646
99.426,.186119273304939,.814434826374054,.176295757293701
99.427,.185818061232567,.819290518760681,.176192849874496
99.428,.185516059398651,.824143528938293,.176089286804199
99.429,.185211315751076,.829034388065338,.175984293222427
99.43,.184908285737038,.833881139755249,.175879493355751
99.431,.184602230787277,.838764667510986,.175773233175278
99.432,.184298038482666,.843605518341064,.175667226314545
99.433,.183990925550461,.848483324050903,.175559684634209
99.434,.183685675263405,.853317975997925,.175452426075935
99.43501,.183375015854836,.858227372169495,.175342798233032
99.436,.183068916201591,.863056778907776,.175234332680702
99.437,.1827572286129,.867961347103119,.17512346804142
99.438,.18245005607605,.872783780097961,.175013691186905
99.439,.182139933109283,.877642512321472,.174902498722076
99.44,.181831985712051,.882460534572601,.174791529774666
99.441,.1815235465765,.887273728847504,.174680009484291
99.442,.181212142109871,.892122447490692,.17456690967083
99.443,.18090283870697,.896929144859314,.174454137682915
99.444,.180590599775314,.901772916316986,.174339845776558
99.445,.180280640721321,.906573355197906,.174225822091103
99.446,.179967686533928,.911409139633179,.174110278487206
99.447,.17965704202652,.916201889514923,.173995062708855
99.448,.179343670606613,.921032667160034,.173878312110901
99.44901,.179029941558838,.925859153270722,.173760950565338
99.45,.178715884685516,.930681824684143,.173642992973328
99.451,.178404435515404,.935464441776276,.173525378108025
99.452,.178087502717972,.94031822681427,.173405185341835
99.453,.177775785326958,.945091784000397,.173286408185959
99.454,.177463933825493,.949863433837891,.173166960477829
99.455,.177149444818497,.954668462276459,.173045948147774
99.456,.176837474107742,.959433257579804,.172925353050232
99.457,.176523000001907,.964230597019196,.17280313372612
99.458,.17621137201786,.968987345695496,.172681331634522
99.459,.175897151231766,.973778188228607,.172558009624481
99.46,.175585940480232,.978528261184692,.17243504524231
99.461,.175272241234779,.983314573764801,.172310441732407
99.462,.17495884001255,.988094329833984,.172185331583023
99.46301,.174643263220787,.9929079413414,.172058582305908
99.464,.174333482980728,.997643828392029,.171933278441429
99.465,.174024373292923,1.00237441062927,.171807408332825
99.466,.173713237047195,1.00714194774628,.171679928898811
99.467,.173405706882477,1.01186633110046,.171552941203117
99.468,.173096433281898,1.01662480831146,.171424329280853
99.469,.172788009047508,1.02137660980225,.171295136213303
99.47,.172480747103691,1.02612805366516,.17116542160511
99.471,.172177538275719,1.03083777427673,.171036154031754
99.472,.171873033046722,1.03558111190796,.170905292034149
99.473,.171572864055634,1.04027986526489,.170774951577187
99.474,.171271562576294,1.0450142621994,.170643001794815
99.475,.170972615480423,1.04974591732025,.170510500669479
99.476,.170675560832024,1.05447161197662,.17037744820118
99.47701,.170380920171738,1.05919432640076,.170243918895721
99.478,.170091599225998,1.06387364864349,.170110911130905
99.479,.169802621006966,1.06858742237091,.169976368546486
99.48,.16951696574688,1.07329535484314,.169841304421425
99.481,.169234678149223,1.07800126075745,.169705659151077
99.482,.168959200382233,1.08266365528107,.169570714235306
99.483,.168685495853424,1.08736181259155,.169434174895287
99.484,.168419137597084,1.09201216697693,.169298261404038
99.485,.168152794241905,1.09673666954041,.169159650802612
99.486,.167897596955299,1.10138177871704,.169022873044014
99.487,.167645856738091,1.1060608625412,.16888453066349
99.488,.167400985956192,1.11072957515717,.168745830655098
99.489,.167163729667664,1.115398645401,.168606728315353
99.49,.166937351226807,1.12002205848694,.168468341231346
99.491,.166717186570168,1.12467658519745,.168328493833542
99.492,.166503936052322,1.12936568260193,.168187171220779
99.493,.166306436061859,1.13397359848022,.168047770857811
99.494,.166117459535599,1.13861274719238,.167906939983368
99.495,.165940672159195,1.14324617385864,.167765870690346
99.496,.165777087211609,1.14787340164185,.167624533176422
99.497,.165630653500557,1.1524566411972,.167484119534492
99.498,.165493756532669,1.15711009502411,.167341127991676
99.499,.165378645062447,1.16168296337128,.167200371623039
99.5,.165276020765305,1.16632199287415,.167057082056999
99.501,.165197685360909,1.17087805271149,.166916057467461
99.502,.165137201547623,1.1754664182663,.166773810982704
99.503,.165098369121552,1.18004858493805,.166631475090981
99.504,.16508586704731,1.18458318710327,.166490346193314
99.505,.165090247988701,1.18922221660614,.166345551609993
99.506,.165129765868187,1.19374239444733,.166204586625099
99.507,.165192529559135,1.19832706451416,.166061237454414
99.508,.165291160345078,1.20283055305481,.165920525789261
99.509,.165417298674583,1.20739722251892,.165777504444122
99.51,.165583997964859,1.2118809223175,.165637284517288
99.511,.165782690048218,1.21642982959747,.165494799613953
99.512,.166026592254639,1.22089552879333,.165355265140533
99.513,.166307657957077,1.22542083263397,.165213614702225
99.514,.166639536619186,1.22986400127411,.165075019001961
99.515,.167014345526695,1.23436903953552,.164934441447258
99.516,.167443409562111,1.23882400989532,.164795756340027
99.517,.167929768562317,1.2432302236557,.164659023284912
99.518,.168469578027725,1.24769473075867,.16452057659626
99.519,.169073820114136,1.25211024284363,.164384201169014
99.52,.169741809368134,1.25654780864716,.164247542619705
99.521,.170482903718948,1.26093447208405,.164113223552704
99.522,.171298921108246,1.26530051231384,.163980022072792
99.523,.172194689512253,1.26965272426605,.163848057389259
99.524,.173173293471336,1.2740216255188,.163716241717339
99.525,.174246981739998,1.27830100059509,.16358844935894
99.526,.175412520766258,1.28263103961945,.163459688425064
99.527,.176682874560356,1.28690326213837,.16333395242691
99.528,.178059965372086,1.29118633270264,.163208827376366
99.529,.179558023810387,1.29537498950958,.163088381290436
99.53,.181177496910095,1.29957318305969,.162968829274178
99.531,.182926833629608,1.30378031730652,.162850260734558
99.53201,.18481682240963,1.30795681476593,.162734270095825
99.533,.186858981847763,1.31206429004669,.162622451782227
99.534,.189060941338539,1.31613957881927,.162513613700867
99.535,.19143134355545,1.32021141052246,.16240656375885
99.536,.193985790014267,1.32421064376831,.162304371595383
99.537,.196732744574547,1.32819998264313,.162204504013062
99.538,.1996910572052,1.33207011222839,.162111386656761
99.539,.202867835760117,1.33596670627594,.162019848823547
99.54,.206283614039421,1.33976805210114,.161934345960617
99.541,.209952086210251,1.34354794025421,.161852434277534
99.542,.213894054293633,1.34722638130188,.161777272820473
99.543,.218127772212029,1.35083484649658,.16170796751976
99.544,.222673028707504,1.35440170764923,.161643460392952
99.545,.227555602788925,1.35784935951233,.161587178707123
99.54601,.232796862721443,1.36127197742462,.161535322666168
99.547,.2384282797575,1.36452162265778,.161494165658951
99.548,.244477421045303,1.36765682697296,.161461547017097
99.549,.250976860523224,1.37066781520844,.161438137292862
99.55,.257960945367813,1.37357354164124,.161423355340958
99.551,.265469968318939,1.37628841400146,.161420807242393
99.552,.273546040058136,1.37886500358582,.161428600549698
99.553,.282236397266388,1.38121259212494,.16145059466362
99.554,.291591703891754,1.3833395242691,.161486610770226
99.555,.301669716835022,1.38525629043579,.161536410450935
99.556,.312532126903534,1.38685977458954,.161604210734367
99.557,.32424920797348,1.38818275928497,.16168874502182
99.558,.336896985769272,1.38911533355713,.161794766783714
99.559,.350561559200287,1.3896689414978,.161921128630638
99.56001,.36533796787262,1.38976001739502,.162071615457535
99.561,.381330668926239,1.38931202888489,.162248641252518
99.562,.39865455031395,1.38821125030518,.1624566167593
99.563,.417444318532944,1.38642740249634,.162695586681366
99.564,.437839835882187,1.38377857208252,.162972211837769
99.565,.460008561611176,1.38019466400146,.163287580013275
99.566,.484122842550278,1.3754403591156,.163649350404739
99.567,.510383248329163,1.36934542655945,.164061412215233
99.568,.539015352725983,1.36170887947083,.164528280496597
99.569,.570242881774902,1.35213255882263,.165061771869659
99.57,.604347288608551,1.34039151668549,.165663659572601
99.571,.641589760780334,1.32595038414001,.166348025202751
99.572,.682273805141449,1.3083416223526,.167122587561607
99.573,.726674854755402,1.28684484958649,.168002650141716
99.57401,.77509480714798,1.26075792312622,.16899785399437
99.575,.827715635299683,1.22895073890686,.170132249593735
99.576,.88472455739975,1.19040381908417,.171416044235229
99.577,.943434417247772,1.1462539434433,.169981315732002
99.578,1.00297462940216,1.09644198417664,.164703220129013
99.579,1.06598615646362,1.03657627105713,.158849850296974
99.58,1.13151061534882,.965056955814362,.152373358607292
99.581,1.19800138473511,.88034051656723,.145237535238266
99.582,1.26321721076965,.781198740005493,.137426316738129
99.583,1.32419264316559,.667069494724274,.128955632448196
99.584,1.37735056877136,.538454115390778,.119886122643948
99.585,1.41901755332947,.397379070520401,.110325537621975
99.586,1.44577920436859,.247350633144379,.10044052451849
99.587,1.46001708507538,.109617546200752,8.91728028655052E-02
99.58801,1.4644056558609,-1.72122642397881E-02,7.71810859441757E-02
99.589,1.45762300491333,-.140368491411209,6.55644237995148E-02
99.59,1.44109392166138,-.256604224443436,5.45386411249638E-02
99.591,1.41695737838745,-.363652646541595,4.42575067281723E-02
99.592,1.38736259937286,-.460287779569626,3.48120592534542E-02
99.593,1.35452830791473,-.546226739883423,2.62337662279606E-02
99.594,1.32023417949677,-.621848046779633,1.85110010206699E-02
99.595,1.28581380844116,-.687918066978455,1.16022890433669E-02
99.596,1.25548112392426,-.747279465198517,5.58196799829602E-03
99.597,1.22897100448608,-.801033675670624,3.5221831058152E-04
99.598,1.20354092121124,-.848331272602081,-4.28115855902433E-03
99.599,1.17952382564545,-.889943718910217,-8.37963167577982E-03
99.6,1.15713965892792,-.926597356796265,-1.19997896254063E-02
99.601,1.13643968105316,-.95887690782547,-1.51945082470775E-02
99.60201,1.11753702163696,-.987411320209503,-1.80069599300623E-02
99.603,1.10032498836517,-1.01258158683777,-2.04811524599791E-02
99.604,1.08482694625854,-1.03486382961273,-2.26502791047096E-02
99.605,1.07096290588379,-1.0545871257782,-2.45460104197264E-02
99.606,1.05865216255188,-1.07203602790833,-2.61963345110416E-02
99.607,1.0478458404541,-1.08749985694885,-.02762371301651
99.608,1.03843998908997,-1.10116159915924,-2.88506224751472E-02
99.609,1.03038275241852,-1.11324167251587,-2.98938639461994E-02
99.61,1.02357542514801,-1.12386667728424,-3.07713504880667E-02
99.611,1.01797115802765,-1.13321030139923,-3.14958915114403E-02
99.612,1.01347351074219,-1.14135253429413,-3.20820584893227E-02
99.613,1.01004326343536,-1.14843511581421,-3.25395874679089E-02
99.614,1.00759148597717,-1.15450978279114,-3.28804515302181E-02
99.615,1.00607252120972,-1.15967559814453,-3.31132560968399E-02
99.616,1.00544118881226,-1.16402053833008,-3.32456827163696E-02
99.617,1.00560343265533,-1.1675466299057,-3.32879982888699E-02
99.618,1.00654721260071,-1.17036950588226,-3.32448035478592E-02
99.619,1.00820791721344,-1.17251837253571,-3.31236906349659E-02
99.62,1.01053643226624,-1.17403733730316,-3.29306721687317E-02
99.621,1.01347315311432,-1.17494988441467,-.032672543078661
99.622,1.01699674129486,-1.17533278465271,-.032353114336729
99.623,1.02102530002594,-1.17516648769379,-.031980074942112
99.624,1.02556228637695,-1.17456066608429,-.031555213034153
99.625,1.03052854537964,-1.17349541187286,-3.10858357697725E-02
99.626,1.03589034080505,-1.17202043533325,-3.05759683251381E-02
99.627,1.0416054725647,-1.17017161846161,-3.00302002578974E-02
99.628,1.04762947559357,-1.16798210144043,-2.94531770050526E-02
99.629,1.05390572547913,-1.16547083854675,-.028850419446826
99.63,1.06042540073395,-1.16273081302643,-2.82243993133307E-02
99.631,1.06710076332092,-1.1597489118576,-2.75825746357441E-02
99.632,1.07388174533844,-1.15657210350037,-2.69301440566778E-02
99.633,1.08074045181274,-1.15328633785248,-2.62713395059109E-02
99.634,1.08758449554443,-1.14989185333252,-2.56139375269413E-02
99.635,1.0944105386734,-1.14651441574097,-2.49608028680086E-02
99.636,1.1011266708374,-1.14315831661224,-2.43198145180941E-02
99.637,1.10769379138947,-1.13989996910095,-2.36957371234894E-02
99.638,1.11405992507935,-1.13679790496826,-2.30942014604807E-02
99.639,1.12017393112183,-1.13391399383545,-2.25208476185799E-02
99.64,1.12598323822021,-1.13131093978882,-2.19811070710421E-02
99.641,1.13143479824066,-1.12905538082123,-2.14808359742165E-02
99.642,1.13646101951599,-1.1272007226944,-2.10266299545765E-02
99.643,1.14103019237518,-1.12585473060608,-2.06232853233814E-02
99.644,1.14506804943085,-1.12507820129395,-.020277937874198
99.645,1.14849448204041,-1.12493693828583,-1.99981573969126E-02
99.646,1.15126514434814,-1.12555301189423,-1.97897758334875E-02
99.647,1.15327537059784,-1.12698614597321,-1.96618661284447E-02
99.648,1.1544668674469,-1.12936770915985,-1.96212455630302E-02
99.649,1.154705286026,-1.13275396823883,-1.96787118911743E-02
99.65,1.15393829345703,-1.13731682300568,-1.98407676070929E-02
99.651,1.15199768543243,-1.14310741424561,-.020120270550251
99.652,1.14880311489105,-1.15030705928802,-2.05249395221472E-02
99.653,1.14415645599365,-1.1589732170105,-2.10688859224319E-02
99.654,1.13793075084686,-1.1692773103714,-2.17620227485895E-02
99.655,1.12991404533386,-1.18130874633789,-.022618604823947
99.656,1.11992180347443,-1.19522094726563,-2.36505977809429E-02
99.65701,1.1077162027359,-1.21112537384033,-2.48720608651638E-02
99.658,1.09298753738403,-1.22905588150024,-2.63008400797844E-02
99.659,1.0755021572113,-1.24917829036713,-.027947910130024
99.66,1.05489981174469,-1.27149283885956,-2.98311356455088E-02
99.661,1.03084206581116,-1.2960387468338,-3.19647043943405E-02
99.662,1.00294947624207,-1.32278048992157,-3.43630500137806E-02
99.663,.970832884311676,-1.35162317752838,-3.70390005409718E-02
99.664,.934095323085785,-1.38237273693085,-4.00040000677109E-02
99.665,.892381072044373,-1.41478848457336,-4.32627871632576E-02
99.666,.845357179641724,-1.44845366477966,-.046819306910038
99.667,.792801380157471,-1.482905626297,-5.06667755544186E-02
99.668,.734588027000427,-1.51747357845306,-5.47966323792934E-02
99.669,.670788288116455,-1.55148220062256,-5.91850690543652E-02
99.67,.598738849163055,-1.58809018135071,-6.34089633822441E-02
99.67101,.515279054641724,-1.62967550754547,-6.70475363731384E-02
99.672,.426320403814316,-1.6675888299942,-7.07921460270882E-02
99.673,.332983791828156,-1.70082437992096,-.074601411819458
99.674,.236655250191689,-1.72870111465454,-7.84212872385979E-02
99.675,.138915568590164,-1.75070714950562,-8.22039768099785E-02
99.676,4.14268597960472E-02,-1.76671409606934,-8.58968570828438E-02
99.677,-5.41514605283737E-02,-1.77687525749207,-8.94531980156899E-02
99.678,-.146277412772179,-1.78168547153473,-.092826709151268
99.679,-.233568251132965,-1.78183484077454,-9.59800779819489E-02
99.68,-.314876914024353,-1.77825248241425,-9.88753139972687E-02
99.681,-.389230400323868,-1.77187514305115,-.101487807929516
99.682,-.455852687358856,-1.76370406150818,-.103795804083347
99.683,-.514186382293701,-1.75483775138855,-.105769611895084
99.684,-.563664734363556,-1.74612247943878,-.107401691377163
99.68501,-.603932082653046,-1.73857510089874,-.10866092890501
99.686,-.634470403194427,-1.73284327983856,-.109543368220329
99.687,-.654866755008698,-1.72965502738953,-.11002404987812
99.688,-.664593756198883,-1.72950899600983,-.11008608341217
99.689,-.663089752197266,-1.73277175426483,-.109707199037075
99.69,-.649685978889465,-1.73952043056488,-.108872324228287
99.691,-.623779714107514,-1.74967443943024,-.107556879520416
99.692,-.584741294384003,-1.76268637180328,-.105755247175694
99.693,-.532229542732239,-1.77774918079376,-.103457346558571
99.694,-.466209083795547,-1.79352247714996,-.100681558251381
99.695,-.387334376573563,-1.80841469764709,-9.74559336900711E-02
99.696,-.297078400850296,-1.82057881355286,-9.38398987054825E-02
99.697,-.197899982333183,-1.82818126678467,-8.99268165230751E-02
99.698,-9.33044701814651E-02,-1.8299206495285,-8.58291238546371E-02
99.69901,1.24836247414351E-02,-1.82514500617981,-8.16928595304489E-02
99.7,.114875487983227,-1.81425702571869,-7.76726454496384E-02
99.701,.209451138973236,-1.79866778850555,-7.39224329590797E-02
99.702,.292387515306473,-1.78063058853149,-7.05805644392967E-02
99.703,.360690474510193,-1.7627135515213,-6.77744671702385E-02
99.704,.4121453166008,-1.74762284755707,-6.56008198857307E-02
99.705,.445136219263077,-1.73768675327301,-6.41409307718277E-02
99.706,.458354830741882,-1.73471534252167,-6.34567439556122E-02
99.707,.450560688972473,-1.73974752426147,-6.35984241962433E-02
99.708,.420463413000107,-1.75286710262299,-6.46049827337265E-02
99.709,.366820067167282,-1.77307534217834,-6.64940401911736E-02
99.71,.28883358836174,-1.79803001880646,-6.92569985985756E-02
99.711,.186864048242569,-1.82412481307983,-7.28348046541214E-02
99.712,6.33563250303268E-02,-1.84676361083984,-7.71057233214378E-02
99.71301,-7.64263868331909E-02,-1.86139714717865,-8.18640142679214E-02
99.714,-.224301978945732,-1.86472105979919,-8.68401899933815E-02
99.715,-.370243847370148,-1.85613679885864,-.09171012789011
99.716,-.504108786582947,-1.83801352977753,-9.61543470621109E-02
99.717,-.617373704910278,-1.81510746479034,-9.98891741037369E-02
99.718,-.703897178173065,-1.79309260845184,-.102701000869274
99.719,-.759826064109802,-1.77728116512299,-.104434244334698
99.72,-.78286749124527,-1.7715824842453,-.10498520731926
99.721,-.771538019180298,-1.7777761220932,-.104307368397713
99.722,-.725187838077545,-1.7953120470047,-.102389737963676
99.723,-.644479274749756,-1.8209228515625,-9.92967337369919E-02
99.724,-.532868981361389,-1.84908521175385,-9.51793119311333E-02
99.725,-.397910207509995,-1.8729864358902,-9.03320610523224E-02
99.726,-.251925438642502,-1.88714289665222,-8.51586759090424E-02
