Structure Acceleration, RAO-Based Response
Line A: Structure Acceleration, RAO-Based Response - Global RX (Trimaran) [°/s²]
Line B: Structure Acceleration, RAO-Based Response - Global RY (Trimaran) [°/s²]
Line C: Structure Acceleration, RAO-Based Response - Global RZ (Trimaran) [°/s²]

*Time (s),Line A (°/s²),Line B (°/s²),Line C (°/s²)
100,-2.15077679604292E-02,5.08047819137573,3.77033315598965E-02
100.001,-.021471431478858,5.08701515197754,3.76729071140289E-02
100.002,-2.14347504079342E-02,5.09357023239136,3.76420803368092E-02
100.003,-2.13981047272682E-02,5.1000542640686,3.76112684607506E-02
100.004,-2.13619563728571E-02,5.10651350021362,3.75802665948868E-02
100.005,-2.13254373520613E-02,5.11294603347778,3.75490710139275E-02
100.006,-2.12882626801729E-02,5.1193528175354,3.75176891684532E-02
100.007,-2.12509762495756E-02,5.12581920623779,3.74856777489185E-02
100.008,-2.12135501205921E-02,5.13217306137085,.037453904747963
100.009,-2.11761519312859E-02,5.13850164413452,3.74219454824924E-02
100.01,-2.11385693401098E-02,5.14480352401733,3.73897962272167E-02
100.011,-2.11007408797741E-02,5.15107822418213,3.73574458062649E-02
100.012,-2.10626162588596E-02,5.1573281288147,.037324920296669
100.013,-.021023940294981,5.16355037689209,3.72921861708164E-02
100.014,-.020985085517168,5.16978883743286,3.72590534389019E-02
100.015,-2.09463704377413E-02,5.17595911026001,3.72259467840195E-02
100.016,-2.09070648998022E-02,5.18210172653198,3.71926464140415E-02
100.017,-2.08679623901844E-02,5.18821954727173,3.71591560542583E-02
100.018,-2.08284612745047E-02,5.1943097114563,3.71254794299603E-02
100.019,-2.07882951945066E-02,5.20037364959717,3.70916090905666E-02
100.02,-2.07478273659945E-02,5.20645236968994,3.70573215186596E-02
100.021,-2.07066033035517E-02,5.21250343322754,3.70228327810764E-02
100.022,-2.06652861088514E-02,5.21848773956299,3.69883961975574E-02
100.023,-2.06241253763437E-02,5.22444438934326,3.69537584483624E-02
100.024,-2.05825287848711E-02,5.23037576675415,3.69189456105232E-02
100.025,-2.05400008708239E-02,5.23631954193115,3.68837006390095E-02
100.026,-.020497040823102,5.24219608306885,3.68484891951084E-02
100.027,-2.04539652913809E-02,5.24804639816284,3.68130914866924E-02
100.028,-2.04100366681814E-02,5.25387001037598,3.67775112390518E-02
100.029,-2.03660577535629E-02,5.25966644287109,3.67417372763157E-02
100.03,-2.03209109604359E-02,5.26543664932251,3.67057770490646E-02
100.031,-2.02754642814398E-02,5.27118015289307,3.66696268320084E-02
100.032,-2.02290378510952E-02,5.2769341468811,3.66330295801163E-02
100.033,-.020182628184557,5.28262281417847,3.65965031087399E-02
100.034,-2.01353803277016E-02,5.28828525543213,3.65597791969776E-02
100.035,-2.00865268707275E-02,5.29399585723877,3.65223549306393E-02
100.036,-.020037641748786,5.29960298538208,3.64852473139763E-02
100.037,-1.99880059808493E-02,5.3052225112915,3.64476926624775E-02
100.038,-1.99377872049809E-02,5.31077432632446,3.64101938903332E-02
100.039,-1.98870152235031E-02,5.31630086898804,3.63725237548351E-02
100.04,-1.98357924818993E-02,5.32180023193359,3.63346487283707E-02
100.041,-1.97835545986891E-02,5.3272705078125,3.62965799868107E-02
100.042,-1.97303518652916E-02,5.33271503448486,3.62583287060261E-02
100.043,-1.96766667068005E-02,5.33813238143921,3.62198799848557E-02
100.044,-1.96212064474821E-02,5.34359550476074,3.61807160079479E-02
100.045,-1.95655394345522E-02,5.34895706176758,3.61418798565865E-02
100.046,-1.95084735751152E-02,5.35429239273071,3.61028462648392E-02
100.047,-1.94506086409092E-02,5.35960054397583,3.60636301338673E-02
100.048,-1.93918086588383E-02,5.36488008499146,3.60242240130901E-02
100.049,-1.93312298506498E-02,5.37020301818848,3.59840802848339E-02
100.05,-1.92695837467909E-02,5.37546396255493,3.59440036118031E-02
100.051,-1.92076377570629E-02,5.38066101074219,3.59040126204491E-02
100.052,-1.91443786025047E-02,5.38583040237427,3.58638241887093E-02
100.053,-1.90797913819551E-02,5.39097166061401,3.58234234154224E-02
100.054,-1.90134234726429E-02,5.39612054824829,3.57825681567192E-02
100.055,-1.89451016485691E-02,5.40124177932739,3.57415080070496E-02
100.056,-1.88757348805666E-02,5.40630102157593,3.57005372643471E-02
100.057,-.018805056810379,5.41133165359497,.035659346729517
100.058,-1.87317281961441E-02,5.41636848449707,3.56176905333996E-02
100.059,-1.86569932848215E-02,5.42134428024292,3.55761013925076E-02
100.06,-1.85808576643467E-02,5.42629289627075,3.55343259871006E-02
100.061,-.018502663820982,5.43121147155762,3.54923345148563E-02
100.062,-.018422169610858,5.43616962432861,3.54495868086815E-02
100.063,-.018339104950428,5.44106769561768,3.54069136083126E-02
100.064,-1.82546563446522E-02,5.44590187072754,3.53643037378788E-02
100.065,-1.81674156337976E-02,5.4507417678833,3.53211984038353E-02
100.066,-1.80775467306376E-02,5.45552158355713,.035278182476759
100.067,-1.79847702383995E-02,5.46033811569214,3.52343805134296E-02
100.068,-1.78900044411421E-02,5.46506023406982,3.51909399032593E-02
100.069,-.017792634665966,5.46975517272949,3.51472832262516E-02
100.07,-1.76917985081673E-02,5.47445297241211,.035103116184473
100.071,-1.75879504531622E-02,5.47909259796143,.035059031099081
100.072,-1.74805410206318E-02,5.48373413085938,3.50144319236279E-02
100.073,-1.73698235303164E-02,5.48831558227539,3.49698960781097E-02
100.074,-1.72542743384838E-02,5.49293041229248,3.49245294928551E-02
100.075,-1.71357374638319E-02,5.49745559692383,3.48795503377914E-02
100.076,-1.70122534036636E-02,5.50198268890381,3.48340235650539E-02
100.077,-1.68843697756529E-02,5.5064811706543,3.47882732748985E-02
100.078,-1.67509168386459E-02,5.51095008850098,3.47422659397125E-02
100.079,-1.66118182241917E-02,5.51542091369629,3.46956923604012E-02
100.08,-1.64678022265434E-02,5.51980209350586,3.46495024859905E-02
100.081,-1.63163021206856E-02,5.5241847038269,.034602727741003
100.082,-1.61588471382856E-02,5.52853775024414,3.45556847751141E-02
100.083,-1.59947816282511E-02,5.53283309936523,3.45086939632893E-02
100.084,-1.58223081380129E-02,5.53712844848633,.034461110830307
100.085,-.015641201287508,5.54139423370361,3.44132296741009E-02
100.086,-1.54510671272874E-02,5.5456600189209,.034364752471447
100.087,-1.52523461729288E-02,5.54983806610107,3.43165993690491E-02
100.088,-1.50424148887396E-02,5.55401563644409,3.42678017914295E-02
100.089,-1.48216690868139E-02,5.55816459655762,.034218680113554
100.09,-1.45896542817354E-02,5.56228351593018,3.41692455112934E-02
100.091,-1.43438307568431E-02,5.56642723083496,3.41187864542007E-02
100.092,-1.40852089971304E-02,5.57048606872559,3.40686291456223E-02
100.093,-1.38120502233505E-02,5.57451486587524,3.40180806815624E-02
100.094,-1.35229602456093E-02,5.57851362228394,.033967137336731
100.095,-1.32172256708145E-02,5.58248281478882,3.39157842099667E-02
100.096,-1.28934029489756E-02,5.58644819259644,3.38636636734009E-02
100.097,-1.25499460846186E-02,5.59038305282593,.033811092376709
100.098,-1.21864816173911E-02,5.59426021575928,3.37583906948566E-02
100.099,-1.18011012673378E-02,5.59810638427734,3.37051786482334E-02
100.1,-1.13923102617264E-02,5.60194778442383,.033651128411293
100.101,-1.09590636566281E-02,5.60573291778564,3.35968770086765E-02
100.102,-1.04996068403125E-02,5.60951089859009,3.35417166352272E-02
100.103,-1.00117428228259E-02,5.61323499679565,3.34862917661667E-02
100.104,-9.49341710656881E-03,5.61697578430176,3.34295593202114E-02
100.105,-8.94393399357796E-03,5.62065982818604,3.33725027740002E-02
100.106,-8.3607379347086E-03,5.62431335449219,3.33147719502449E-02
100.107,-7.74158770218492E-03,5.62790679931641,3.32566164433956E-02
100.108,-7.08392867818475E-03,5.63149547576904,3.31973657011986E-02
100.109,-6.38507446274161E-03,5.63507270812988,3.31369414925575E-02
100.11,-5.64402434974909E-03,5.63859510421753,3.30760031938553E-02
100.111,-4.85764117911458E-03,5.64208459854126,.033014178276062
100.112,-4.02297079563141E-03,5.64554023742676,3.29513847827911E-02
100.113,-3.13628744333982E-03,5.64896011352539,3.28875854611397E-02
100.114,-2.19522207044065E-03,5.65234756469727,3.28226909041405E-02
100.115,-1.19639537297189E-03,5.65570116043091,3.27567048370838E-02
100.116,-1.36068512802012E-04,5.65904140472412,3.26891466975212E-02
100.117,9.88674932159483E-04,5.66232633590698,3.26206833124161E-02
100.118,2.18341266736388E-03,5.66559648513794,3.25505025684834E-02
100.119,3.45044629648328E-03,5.66883039474487,.032478928565979
100.12,4.79436432942748E-03,5.67200660705566,3.24062146246433E-02
100.121,6.22124178335071E-03,5.67519092559814,3.23311686515808E-02
100.122,7.73383677005768E-03,5.6782922744751,3.22551801800728E-02
100.123,9.33945365250111E-03,5.68137979507446,3.21770422160625E-02
100.124,1.10424449667335E-02,5.68442630767822,3.20969857275486E-02
100.125,1.28496224060655E-02,5.68741321563721,3.20153199136257E-02
100.126,1.47670404985547E-02,5.69038152694702,3.19310948252678E-02
100.127,1.68004799634218E-02,5.69331216812134,3.18446196615696E-02
100.128,1.89587790518999E-02,5.69622230529785,.031755305826664
100.129,2.12485566735268E-02,5.69906902313232,3.16638350486755E-02
100.13,2.36779041588306E-02,5.70187377929688,3.15696224570274E-02
100.131,2.62556206434965E-02,5.70463514328003,3.14725115895271E-02
100.132,2.89922524243593E-02,5.70736980438232,.031371857970953
100.133,3.18980254232883E-02,5.71006155014038,3.12679000198841E-02
100.134,3.49829159677029E-02,5.71270418167114,3.11604030430317E-02
100.135,3.82582880556583E-02,5.71527862548828,3.10495402663946E-02
100.136,4.17371466755867E-02,5.71780681610107,3.09346243739128E-02
100.137,.045433770865202,5.72030210494995,3.08149587363005E-02
100.138,4.93618585169315E-02,5.72272348403931,3.06911319494247E-02
100.139,.053539264947176,5.72513198852539,3.05614918470383E-02
100.14,5.79816773533821E-02,5.72745895385742,.030426936224103
100.141,6.27073124051094E-02,5.72971343994141,.030287129804492
100.142,6.77376538515091E-02,5.73192405700684,3.01407221704721E-02
100.143,7.30950012803078E-02,5.73406887054443,2.99877785146236E-02
100.144,7.88034945726395E-02,5.73614835739136,2.98277270048857E-02
100.145,8.48897621035576E-02,5.73815822601318,2.96599864959717E-02
100.146,9.13828760385513E-02,5.7401270866394,2.94830519706011E-02
100.147,9.83135625720024E-02,5.74198007583618,2.92981099337339E-02
100.148,.105719059705734,5.7437686920166,2.91030090302229E-02
100.149,.113636583089828,5.74545288085938,2.88978535681963E-02
100.15,.122109338641167,5.74704122543335,2.86812782287598E-02
100.151,.131186604499817,5.74855709075928,2.84512937068939E-02
100.152,.140919163823128,5.74993467330933,2.82087419182062E-02
100.153,.151368021965027,5.75120782852173,2.79508382081985E-02
100.154,.162598237395287,5.75233602523804,2.76772379875183E-02
100.155,.1746856123209,5.75333499908447,2.73852627724409E-02
100.156,.187712579965591,5.75418090820313,2.70736590027809E-02
100.157,.20177449285984,5.75485372543335,2.67404038459063E-02
100.158,.216980084776878,5.75535202026367,2.63825934380293E-02
100.159,.233449995517731,5.75561666488647,2.59987618774176E-02
100.16,.251326352357864,5.75565958023071,2.55846418440342E-02
100.161,.270769208669662,5.75541305541992,2.51380372792482E-02
100.162,.291966676712036,5.75485706329346,2.46541686356068E-02
100.163,.315136820077896,5.75397253036499,2.41271536797285E-02
100.164,.340530633926392,5.75264739990234,.023553928360343
100.165,.368448466062546,5.75084590911865,2.29267533868551E-02
100.166,.399244129657745,5.74849128723145,2.22372226417065E-02
100.167,.433337301015854,5.74545860290527,2.14766394346952E-02
100.168,.471234977245331,5.74161911010742,2.06346847116947E-02
100.169,.513551115989685,5.73682308197021,1.96954235434532E-02
100.17,.561034679412842,5.73082685470581,1.86444092541933E-02
100.171,.614612460136414,5.72334909439087,1.74600668251514E-02
100.172,.675439417362213,5.71401071548462,1.61164086312056E-02
100.173,.744977116584778,5.70229816436768,1.45801026374102E-02
100.174,.825097620487213,5.68751049041748,1.28070916980505E-02
100.175,.918229639530182,5.66864919662476,1.07418382540345E-02
100.176,1.02757680416107,5.64427328109741,8.30981228500605E-03
100.177,1.1574387550354,5.61229181289673,5.40552102029324E-03
100.178,1.31364977359772,5.56949329376221,1.88768352381885E-03
100.179,1.50416827201843,5.51090145111084,-2.44748219847679E-03
100.18,1.74021732807159,5.42843961715698,-7.90013466030359E-03
100.181,2.03777098655701,5.30837726593018,-1.49235399439931E-02
100.182,2.41933035850525,5.12640523910522,-2.42177341133356E-02
100.183,2.91469550132751,4.83803606033325,-.036909069865942
100.184,3.55444669723511,4.36086988449097,-5.47467470169067E-02
100.185,4.27077198028564,3.46333575248718,-6.10893592238426E-02
100.186,4.86366558074951,2.05200171470642,-5.95764778554439E-02
100.187,5.00816535949707,.319825679063797,-5.76326437294483E-02
100.188,4.54627704620361,-1.28602993488312,-4.33362573385239E-02
100.189,3.82363080978394,-2.32085585594177,-3.17413955926895E-02
100.19,3.15958333015442,-2.88859748840332,-2.32060588896275E-02
100.191,2.69212102890015,-3.27035570144653,-1.45854922011495E-02
100.192,2.32364869117737,-3.49871492385864,-8.32902546972036E-03
100.193,2.03612208366394,-3.64090442657471,-3.66666447371244E-03
100.194,1.80988550186157,-3.73314666748047,-9.69199827522971E-05
100.195,1.6294207572937,-3.79521942138672,2.70217866636813E-03
100.196,1.48342156410217,-3.8383252620697,4.93930419906974E-03
100.197,1.36377668380737,-3.86906838417053,6.75572920590639E-03
100.198,1.26463866233826,-3.89148449897766,8.24830029159784E-03
100.199,1.18173110485077,-3.9081404209137,9.48807969689369E-03
100.2,1.11189150810242,-3.92071080207825,1.05238175019622E-02
100.201,1.05272400379181,-3.93032264709473,1.13951889798045E-02
100.202,1.00240898132324,-3.93775653839111,1.21275959536433E-02
100.203,.959516286849976,-3.94355154037476,1.27449883148074E-02
100.204,.92292732000351,-3.9481041431427,.013263825327158
100.205,.891746997833252,-3.95169901847839,1.36969992890954E-02
100.206,.865244388580322,-3.95454049110413,1.40573233366013E-02
100.207,.842832028865814,-3.95678973197937,1.43518848344684E-02
100.208,.824016511440277,-3.95856475830078,1.45891411229968E-02
100.209,.808391988277435,-3.95995163917542,1.47740347310901E-02
100.21,.795608580112457,-3.96102023124695,.014912904240191
100.211,.785375893115997,-3.96182560920715,1.50088826194406E-02
100.212,.777438282966614,-3.96240544319153,1.50664122775197E-02
100.213,.771573722362518,-3.96278834342957,1.50892352685332E-02
100.214,.767594218254089,-3.96300554275513,1.50796072557569E-02
100.215,.765328288078308,-3.9630708694458,1.50401135906577E-02
100.216,.764627158641815,-3.96299576759338,1.49723282083869E-02
100.217,.765352725982666,-3.96279430389404,1.48789770901203E-02
100.218,.767381608486176,-3.96247744560242,.014762313105166
100.219,.770599603652954,-3.96204805374146,1.46236317232251E-02
100.22,.774905145168304,-3.96151185035706,1.44643746316433E-02
100.221,.780198037624359,-3.96087241172791,1.42867052927613E-02
100.222,.786389350891113,-3.96013355255127,1.40909068286419E-02
100.223,.793391704559326,-3.9592912197113,1.38783240690827E-02
100.224,.801119327545166,-3.95836186408997,.013652072288096
100.225,.809492826461792,-3.9573347568512,1.34116774424911E-02
100.226,.818433701992035,-3.95621776580811,1.31590198725462E-02
100.227,.827862501144409,-3.95501589775085,1.28960879519582E-02
100.228,.83770352602005,-3.95372581481934,1.26229701563716E-02
100.229,.847877264022827,-3.9523594379425,1.23422518372536E-02
100.23,.858308076858521,-3.95091485977173,1.20535362511873E-02
100.231,.8689004778862,-3.94940233230591,.011760369874537
100.232,.879556596279144,-3.94783306121826,1.14645529538393E-02
100.233,.890180885791779,-3.94621396064758,1.11673707142472E-02
100.234,.900672733783722,-3.94455814361572,1.08701540157199E-02
100.235,.910930812358856,-3.94287180900574,1.05755478143692E-02
100.236,.92085474729538,-3.94117879867554,1.02861896157265E-02
100.237,.930348932743073,-3.93948245048523,1.00028207525611E-02
100.238,.939315915107727,-3.93780636787415,9.72873717546463E-03
100.239,.947661340236664,-3.93616580963135,9.46535356342793E-03
100.24,.955284357070923,-3.93456768989563,9.2141404747963E-03
100.241,.962079346179962,-3.93303847312927,8.97808559238911E-03
100.242,.967929840087891,-3.93159818649292,8.76040477305651E-03
100.243,.97271990776062,-3.93026423454285,8.56311153620481E-03
100.244,.976322591304779,-3.9290463924408,8.38766060769558E-03
100.245,.978599429130554,-3.92798757553101,8.23992118239403E-03
100.246,.979402482509613,-3.92709755897522,8.12184996902943E-03
100.247,.978579878807068,-3.92639064788818,8.03572777658701E-03
100.248,.975954294204712,-3.92590665817261,7.9882713034749E-03
100.249,.971343755722046,-3.92565989494324,7.98241700977087E-03
100.25,.964545786380768,-3.9256579875946,8.02222266793251E-03
100.251,.955340921878815,-3.92592883110046,8.11416003853083E-03
100.252,.943489491939545,-3.92648124694824,8.26332159340382E-03
100.253,.928727746009827,-3.92731666564941,8.47518909722567E-03
100.254,.910765945911407,-3.92843294143677,8.75732116401196E-03
100.255,.889280796051025,-3.92983102798462,9.11811739206314E-03
100.256,.863918542861938,-3.93147993087769,9.56534780561924E-03
100.257,.834286332130432,-3.93332362174988,1.01072425022721E-02
100.258,.799941778182983,-3.9353232383728,1.07569973915815E-02
100.259,.760404348373413,-3.93737101554871,1.15244165062904E-02
100.26,.715128064155579,-3.93933629989624,1.24234482645988E-02
100.261,.663505077362061,-3.94105291366577,1.34696895256639E-02
100.262,.604858756065369,-3.94227647781372,1.46795138716698E-02
100.263,.538425147533417,-3.94268012046814,1.60717852413654E-02
100.264,.463351666927338,-3.94185638427734,1.76695734262466E-02
100.265,.378698736429214,-3.93924713134766,1.94970276206732E-02
100.266,.283431977033615,-3.93414068222046,2.15829946100712E-02
100.267,.176437094807625,-3.92562127113342,2.39599402993917E-02
100.268,5.65301291644573E-02,-3.91249847412109,2.66638658940792E-02
100.269,-.078121691942215,-3.91801428794861,2.97239497303963E-02
100.27,-.230746850371361,-3.93002939224243,3.31607460975647E-02
100.271,-.403468579053879,-3.9361412525177,3.70532907545567E-02
100.272,-.598344624042511,-3.9335789680481,4.14536707103252E-02
100.273,-.817238509654999,-3.91872930526733,4.64162081480026E-02
100.274,-1.06152772903442,-3.88707733154297,5.19944354891777E-02
100.275,-1.33169794082642,-3.83315634727478,5.82369342446327E-02
100.276,-1.62680435180664,-3.75069093704224,6.51809126138687E-02
100.277,-1.94386422634125,-3.6329448223114,7.28450119495392E-02
100.278,-2.27731204032898,-3.47350144386292,8.12165513634682E-02
100.279,-2.61870884895325,-3.2672712802887,9.02467742562294E-02
100.28,-2.95702862739563,-3.01187229156494,.099840521812439
100.281,-3.29104566574097,-2.72505974769592,.109100386500359
100.282,-3.63384389877319,-2.43387770652771,.116582863032818
100.283,-3.94741225242615,-2.10046744346619,.124112650752068
100.284,-4.2218976020813,-1.73564410209656,.131544023752213
100.285,-4.45141267776489,-1.35207891464233,.138761579990387
100.286,-4.63432216644287,-.962466537952423,.14566595852375
100.287,-4.77258205413818,-.577879130840302,.152192652225494
100.288,-4.87055778503418,-.20686337351799,.158312082290649
100.289,-4.93395042419434,.14469051361084,.164011225104332
100.29,-4.96830177307129,.471525728702545,.16887640953064
100.291,-4.97611808776855,.75402444601059,.168749153614044
100.292,-4.96872568130493,1.01349234580994,.168654441833496
100.293,-4.94980955123901,1.25070750713348,.168593063950539
100.294,-4.92241477966309,1.46686065196991,.16856275498867
100.295,-4.88899850845337,1.66333341598511,.168563917279243
100.296,-4.85159969329834,1.84153258800507,.168586209416389
100.297,-4.8117618560791,2.00282025337219,.168636113405228
100.298,-4.77081918716431,2.14842772483826,.168704092502594
100.299,-4.72976779937744,2.27945137023926,.168799728155136
100.3,-4.68952608108521,2.39681029319763,.168911755084991
100.301,-4.65078830718994,2.50127935409546,.169047564268112
100.302,-4.61423444747925,2.59347057342529,.16919931769371
