Structure Acceleration, RAO-Based Response
Line A: Structure Acceleration, RAO-Based Response - Global RX (Trimaran) [°/s²]
Line B: Structure Acceleration, RAO-Based Response - Global RY (Trimaran) [°/s²]
Line C: Structure Acceleration, RAO-Based Response - Global RZ (Trimaran) [°/s²]

*Time (s),Line A (°/s²),Line B (°/s²),Line C (°/s²)
100,-.027616610750556,4.97904634475708,5.99304810166359E-02
100.001,-2.75820139795542E-02,4.98947954177856,5.98748587071896E-02
100.002,-2.75466032326221E-02,4.99981927871704,5.98192326724529E-02
100.003,-2.75115184485912E-02,5.01019382476807,5.97629025578499E-02
100.004,-2.74763237684965E-02,5.02047443389893,5.97065649926663E-02
100.005,-2.74402443319559E-02,5.0307879447937,.059649508446455
100.006,-.02740428596735,5.04100751876831,5.95924481749535E-02
100.007,-2.73674018681049E-02,5.05132389068604,5.95343224704266E-02
100.008,-2.73307412862778E-02,5.06154727935791,5.94761855900288E-02
100.009,-2.72942967712879E-02,5.07167530059814,5.94180449843407E-02
100.01,-2.72568054497242E-02,5.08183765411377,5.93592002987862E-02
100.011,-2.72196233272552E-02,5.09190559387207,5.93003705143929E-02
100.012,-2.71817930042744E-02,5.10200595855713,5.92407993972302E-02
100.013,-2.71445009857416E-02,5.11201238632202,5.91812469065189E-02
100.014,-2.71058604121208E-02,5.12205219268799,5.91209642589092E-02
100.015,-.027067668735981,5.13199806213379,5.90607076883316E-02
100.016,-.027028251439333,5.14197587966919,5.89997097849846E-02
100.017,-2.69894804805517E-02,5.15186023712158,5.89387491345406E-02
100.018,-2.69499104470015E-02,5.16177463531494,5.88770247995853E-02
100.019,-2.69101243466139E-02,5.17159748077393,5.88153451681137E-02
100.02,-2.68702823668718E-02,5.18145036697388,5.87529353797436E-02
100.021,-2.68291682004929E-02,5.19127225875854,5.86901567876339E-02
100.022,-2.67877373844385E-02,5.20106315612793,5.86270242929459E-02
100.023,-2.67465282231569E-02,5.21076107025146,5.85639104247093E-02
100.024,-2.67045702785254E-02,5.22048807144165,5.85000701248646E-02
100.025,-2.66623683273792E-02,5.23012399673462,5.84362559020519E-02
100.026,-2.66192555427551E-02,5.23978900909424,5.83717115223408E-02
100.027,-2.65754237771034E-02,5.2494215965271,5.83067908883095E-02
100.028,-2.65315249562264E-02,5.25902414321899,5.82415163516998E-02
100.029,-2.64868773519993E-02,5.2685341835022,5.81763088703156E-02
100.03,-2.64416113495827E-02,5.27807235717773,5.81103153526783E-02
100.031,-2.63963229954243E-02,5.28751993179321,5.80444037914276E-02
100.032,-2.63498295098543E-02,5.29699420928955,5.79777024686337E-02
100.033,-2.63030771166086E-02,5.30637741088867,.057911079376936
100.034,-2.62554734945297E-02,5.31578779220581,5.78436590731144E-02
100.035,-2.62063201516867E-02,5.32522392272949,5.77754788100719E-02
100.036,-2.61569824069738E-02,5.33451128005981,5.77077604830265E-02
100.037,-2.61067301034927E-02,5.34382486343384,5.76393008232117E-02
100.038,-2.60560922324657E-02,5.35305023193359,5.75709044933319E-02
100.039,-2.60045751929283E-02,5.36235618591309,5.75012899935246E-02
100.04,-2.59521454572678E-02,5.37151718139648,5.74321784079075E-02
100.041,-2.58986540138721E-02,5.38070058822632,5.73622584342957E-02
100.042,-2.58450135588646E-02,5.38979721069336,5.72924464941025E-02
100.043,-2.57898699492216E-02,5.39891672134399,5.72218261659145E-02
100.044,-2.57341898977757E-02,5.40794515609741,5.71512803435326E-02
100.045,-.025676442310214,5.41705656051636,5.70795051753521E-02
100.046,-2.56180018186569E-02,5.42602252960205,5.70082552731037E-02
100.047,-2.55588628351688E-02,5.43501091003418,5.69362044334412E-02
100.048,-2.54991035908461E-02,5.44391012191772,5.68642392754555E-02
100.049,-2.54372917115688E-02,5.45288991928101,5.67910149693489E-02
100.05,-2.53741052001715E-02,5.46177768707275,5.67178651690483E-02
100.051,-2.53098327666521E-02,5.47063589096069,5.66443651914597E-02
100.052,-2.52448376268148E-02,5.47940587997437,5.65709806978703E-02
100.053,-2.51784380525351E-02,5.48819589614868,5.64967580139637E-02
100.054,-2.51102950423956E-02,5.4969539642334,5.64221777021885E-02
100.055,-2.50407196581364E-02,5.50567865371704,5.63472211360931E-02
100.056,-2.49693561345339E-02,5.51431512832642,5.62723502516747E-02
100.057,-2.48966291546822E-02,5.52297258377075,5.61966709792614E-02
100.058,-2.48221289366484E-02,5.53159666061401,5.61206042766571E-02
100.059,-2.47458200901747E-02,5.54018783569336,5.60441911220551E-02
100.06,-2.46677100658417E-02,5.54869222640991,5.59678860008717E-02
100.061,-2.45868861675262E-02,5.55726861953735,5.58902360498905E-02
100.062,-2.45046503841877E-02,5.56570482254028,.055813156068325
100.063,-2.44189966470003E-02,5.57426691055298,5.57342730462551E-02
100.064,-2.43313852697611E-02,5.58268785476685,5.56559599936008E-02
100.065,-2.42415685206652E-02,5.59102201461792,.055577740073204
100.066,-2.41489559412003E-02,5.59942865371704,5.54981976747513E-02
100.067,-2.40539107471704E-02,5.60769748687744,5.54192028939724E-02
100.068,-2.39559859037399E-02,5.61603450775146,5.53388744592667E-02
100.069,-2.38551869988441E-02,5.62423610687256,5.52591010928154E-02
100.07,-2.37510818988085E-02,5.63250494003296,5.51780015230179E-02
100.071,-2.36438382416964E-02,5.64063692092896,5.50974681973457E-02
100.072,-2.35328078269959E-02,5.64883804321289,5.50155229866505E-02
100.073,-2.34185326844454E-02,5.65690135955811,5.49341626465321E-02
100.074,-.023299515247345,5.66503238677979,5.48514239490032E-02
100.075,-2.31767855584621E-02,5.67307662963867,5.47687485814095E-02
100.076,-2.30492111295462E-02,5.68108797073364,5.46856373548508E-02
100.077,-2.29161512106657E-02,5.68911170959473,5.46015910804272E-02
100.078,-.022777920588851,5.69710350036621,5.45171089470387E-02
100.079,-2.26354021579027E-02,5.70496082305908,5.44332191348076E-02
100.08,-.022485775873065,5.7128791809082,5.43478243052959E-02
100.081,-2.23300401121378E-02,5.72071504592896,5.42624779045582E-02
100.082,-2.21672542393208E-02,5.72856521606445,5.41761815547943E-02
100.083,-2.19965688884258E-02,5.73633146286011,5.40898554027081E-02
100.084,-2.18182634562254E-02,5.74406003952026,5.40030673146248E-02
100.085,-2.16306634247303E-02,5.75180196762085,5.39152212440968E-02
100.086,-2.14345529675484E-02,5.75946235656738,5.38274124264717E-02
100.087,-2.12282221764326E-02,5.76713228225708,5.37385046482086E-02
100.088,-2.10115537047386E-02,5.77472019195557,5.36495707929134E-02
100.089,-2.07833983004093E-02,5.78231716156006,5.35595491528511E-02
100.09,-2.05431841313839E-02,5.78983306884766,.053469467908144
100.091,-2.02888064086437E-02,5.79745101928711,5.33771216869354E-02
100.092,-2.00215354561806E-02,5.8048939704895,5.32858073711395E-02
100.093,-1.97390541434288E-02,5.81234550476074,5.31932525336742E-02
100.094,-1.94404609501362E-02,5.81971454620361,.053100548684597
100.095,-1.91235151141882E-02,5.82713603973389,5.30060455203056E-02
100.096,-1.87889635562897E-02,5.83443069458008,5.29118925333023E-02
100.097,-1.84344220906496E-02,5.84173393249512,5.28164394199848E-02
100.098,-1.80586539208889E-02,5.8489990234375,5.27201630175114E-02
100.099,-1.76603104919195E-02,5.85622835159302,5.26230297982693E-02
100.1,-1.72374304383993E-02,5.86341667175293,5.25249987840652E-02
100.101,-1.67886670678854E-02,5.87061262130737,.052425492554903
100.102,-1.63138266652822E-02,5.87768030166626,5.23261800408363E-02
100.103,-1.58091206103563E-02,5.88479948043823,5.22246770560741E-02
100.104,-1.52733521535993E-02,5.89183282852173,.052122700959444
100.105,-1.47039964795113E-02,5.89891672134399,5.20184598863125E-02
100.106,-1.41005022451282E-02,5.90591621398926,5.19136562943459E-02
100.107,-1.34602338075638E-02,5.91283130645752,5.18081560730934E-02
100.108,-1.27797452732921E-02,5.91975116729736,5.17007932066917E-02
100.109,-1.20573528110981E-02,5.92658948898315,5.15927039086819E-02
100.11,-1.12905018031597E-02,5.93342876434326,5.14825507998466E-02
100.111,-1.04764187708497E-02,5.94018268585205,5.13715110719204E-02
100.112,-9.61209926754236E-03,5.94693851470947,5.12583069503307E-02
100.113,-8.69386177510023E-03,5.95365238189697,5.11434338986874E-02
100.114,-7.7190026640892E-03,5.96032285690308,5.10267913341522E-02
100.115,-6.68457569554448E-03,5.96695137023926,.050908301025629
100.116,-5.58667443692684E-03,5.97354125976563,5.07878437638283E-02
100.117,-4.42091654986143E-03,5.98008298873901,5.06653375923634E-02
100.118,-3.18330666050315E-03,5.98662090301514,.050540067255497
100.119,-1.87043135520071E-03,5.99307441711426,5.04130832850933E-02
100.12,-4.7635065857321E-04,5.99952459335327,5.02830669283867E-02
100.121,1.00197014398873E-03,6.00588703155518,5.01510836184025E-02
100.122,2.5714011862874E-03,6.01224327087402,5.00157698988914E-02
100.123,4.23672655597329E-03,6.01851272583008,4.98781837522984E-02
100.124,6.00439170375466E-03,6.02477407455444,4.97368983924389E-02
100.125,7.87888187915087E-03,6.03094911575317,4.95930686593056E-02
100.126,9.86924860626459E-03,6.03715038299561,4.94445040822029E-02
100.127,1.19812143966556E-02,6.04322671890259,4.92935925722122E-02
100.128,1.42224235460162E-02,6.04929065704346,4.91381548345089E-02
100.129,.016601013019681,6.05529928207397,4.89786826074123E-02
100.13,1.91259980201721E-02,6.06125640869141,4.88147996366024E-02
100.131,2.18056552112103E-02,6.0671591758728,4.86462935805321E-02
100.132,2.46525518596172E-02,6.073082447052,4.84715364873409E-02
100.133,2.76742335408926E-02,6.07891082763672,4.82921451330185E-02
100.134,3.08823268860579E-02,6.08460807800293,4.81085330247879E-02
100.135,3.42915169894695E-02,6.09031534194946,4.79176230728626E-02
100.136,3.79129648208618E-02,6.09592819213867,4.77209724485874E-02
100.137,4.17626313865185E-02,6.1015100479126,.047516904771328
100.138,4.58552688360214E-02,6.10702800750732,4.73055355250835E-02
100.139,5.02071119844913E-02,6.11247682571411,4.70863431692123E-02
100.14,5.48366494476795E-02,6.11782217025757,4.68595214188099E-02
100.141,5.97657486796379E-02,6.1231632232666,4.66223247349262E-02
100.142,6.50124624371529E-02,6.12836122512817,.046376958489418
100.143,7.06036165356636E-02,6.13354635238647,4.61198017001152E-02
100.144,7.65608698129654E-02,6.13857984542847,4.58530113101006E-02
100.145,8.29161256551743E-02,6.1435980796814,4.55727800726891E-02
100.146,8.96985083818436E-02,6.14852285385132,4.52795699238777E-02
100.147,9.69416350126266E-02,6.15334749221802,4.49724048376083E-02
100.148,.104682259261608,6.15803623199463,4.46508638560772E-02
100.149,.11296322196722,6.16265201568604,4.43121455609798E-02
100.15,.12182741612196,6.16711759567261,4.39563766121864E-02
100.151,.131327450275421,6.17148971557617,4.35804389417171E-02
100.152,.141517773270607,6.17569875717163,4.31841909885406E-02
100.153,.152463108301163,6.17982721328735,4.27632480859756E-02
100.154,.164229974150658,6.18373441696167,4.23185713589191E-02
100.155,.176901921629906,6.18753480911255,4.18445616960526E-02
100.156,.190562441945076,6.19108438491821,4.13416549563408E-02
100.157,.205317497253418,6.19448804855347,4.08033318817616E-02
100.158,.221277564764023,6.19763803482056,.040228545665741
100.159,.238574400544167,6.20056343078613,3.96114215254784E-02
100.16,.257357865571976,6.20323467254639,3.89472730457783E-02
100.161,.277795940637589,6.20552062988281,3.82332243025303E-02
100.162,.300090461969376,6.20747518539429,3.74603345990181E-02
100.163,.324468791484833,6.20898532867432,3.66231687366962E-02
100.164,.351204693317413,6.21004438400269,3.57110425829887E-02
100.165,.380614310503006,6.21054744720459,3.47147732973099E-02
100.166,.413073241710663,6.21039295196533,3.36221940815449E-02
100.167,.449030667543411,6.20947027206421,.032418817281723
100.168,.489028304815292,6.20765447616577,3.10859195888042E-02
100.169,.533714830875397,6.20466995239258,2.96054892241955E-02
100.17,.583899140357971,6.20038461685181,2.79465932399035E-02
100.171,.640566766262054,6.19439744949341,2.60799508541822E-02
100.172,.704960286617279,6.18633031845093,2.39617805927992E-02
100.173,.778641521930695,6.17556047439575,2.15419605374336E-02
100.174,.863628506660461,6.16138553619385,1.87478922307491E-02
100.175,.962522983551025,6.14258861541748,1.54952444136143E-02
100.176,1.07879042625427,6.11769580841064,1.16570657119155E-02
100.177,1.21705806255341,6.08425521850586,7.07389833405614E-03
100.178,1.3836522102356,6.0388240814209,1.50730740278959E-03
100.179,1.58718979358673,5.97578096389771,-5.36389322951436E-03
100.18,1.83987259864807,5.88623046875,-1.40341483056545E-02
100.181,2.15904021263123,5.75483465194702,-2.52392701804638E-02
100.182,2.5690758228302,5.55462551116943,-4.01483289897442E-02
100.183,3.1017861366272,5.23610353469849,-6.06072321534157E-02
100.184,3.78792095184326,4.70877408981323,-8.95185619592667E-02
100.185,4.53358268737793,3.67273354530334,-9.33672040700912E-02
100.186,5.09673404693604,2.10923624038696,-.088122271001339
100.187,5.1374683380127,.27887025475502,-7.96802490949631E-02
100.188,4.59586191177368,-1.35568726062775,-5.98071031272411E-02
100.189,3.83289551734924,-2.36458396911621,-.044066958129406
100.19,3.17356634140015,-2.92279481887817,-.03184749558568
100.191,2.70928454399109,-3.29306411743164,-.020276291295886
100.192,2.34469842910767,-3.51596832275391,-1.18640689179301E-02
100.193,2.06016874313354,-3.65601253509522,-5.57816028594971E-03
100.194,1.83594679832458,-3.74777555465698,-7.53361848182976E-04
100.195,1.6567862033844,-3.81020736694336,3.03159351460636E-03
100.196,1.51157581806183,-3.85405850410461,6.06212997809052E-03
100.197,1.39240300655365,-3.88572883605957,8.52247234433889E-03
100.198,1.29353272914886,-3.90913963317871,1.05457324534655E-02
100.199,1.2107857465744,-3.92680716514587,1.22226821258664E-02
100.2,1.14103817939758,-3.94036483764648,1.36234080418944E-02
100.201,1.08194959163666,-3.95093870162964,1.47963864728808E-02
100.202,1.03171062469482,-3.95929455757141,.015780882909894
100.203,.98891282081604,-3.96597981452942,1.66067220270634E-02
100.204,.95244574546814,-3.97137641906738,1.72970443964005E-02
100.205,.921411752700806,-3.97577381134033,.017872117459774
100.206,.895108640193939,-3.97939300537109,1.83432940393686E-02
100.207,.872928619384766,-3.98237681388855,1.87262315303087E-02
100.208,.854399979114532,-3.98485994338989,1.90275683999062E-02
100.209,.839097917079926,-3.98692202568054,1.92590449005365E-02
100.21,.826686978340149,-3.98864221572876,.01942521892488
100.211,.816871404647827,-3.99006772041321,1.95329319685698E-02
100.212,.80939507484436,-3.99124193191528,1.95873286575079E-02
100.213,.804035186767578,-3.99219942092896,1.95938237011433E-02
100.214,.800605058670044,-3.99296402931213,1.95545759052038E-02
100.215,.798927426338196,-3.99355268478394,1.94747466593981E-02
100.216,.798859357833862,-3.99398612976074,1.93550512194633E-02
100.217,.800247251987457,-3.99426436424255,1.92022994160652E-02
100.218,.802983701229095,-3.99440813064575,1.90150644630194E-02
100.219,.806941568851471,-3.99441814422607,1.87981780618429E-02
100.22,.81202220916748,-3.99430370330811,1.85529235750437E-02
100.221,.818122565746307,-3.99406576156616,1.82814691215754E-02
100.222,.825149357318878,-3.99370932579041,1.79858822375536E-02
100.223,.833015561103821,-3.99323844909668,.017667967826128
100.224,.841633379459381,-3.99265718460083,1.73297319561243E-02
100.225,.85092031955719,-3.99196124076843,1.69729012995958E-02
100.226,.860794186592102,-3.99116253852844,.016599353402853
100.227,.871169626712799,-3.99025845527649,1.62118673324585E-02
100.228,.881975650787354,-3.9892566204071,.01581053994596
100.229,.893127620220184,-3.9881649017334,1.53980730101466E-02
100.23,.904542982578278,-3.98698115348816,1.49757331237197E-02
100.231,.91612046957016,-3.98572444915771,1.45476581528783E-02
100.232,.927756786346436,-3.98439526557922,1.41163822263479E-02
100.233,.939354777336121,-3.98301196098328,1.36827668175101E-02
100.234,.950803875923157,-3.98158574104309,1.32513837888837E-02
100.235,.962003111839294,-3.9801287651062,.012823143042624
100.236,.972841680049896,-3.97865867614746,1.24027598649263E-02
100.237,.983224332332611,-3.97719573974609,1.19911227375269E-02
100.238,.993041932582855,-3.97575116157532,1.15929460152984E-02
100.239,1.002201795578,-3.97434282302856,1.12090976908803E-02
100.24,1.010586977005,-3.97299385070801,1.08446115627885E-02
100.241,1.01809394359589,-3.97172379493713,1.05007570236921E-02
100.242,1.02459180355072,-3.97055387496948,1.01830149069428E-02
100.243,1.02996563911438,-3.96950674057007,9.89298522472382E-03
100.244,1.03407084941864,-3.96861052513123,9.63581167161465E-03
100.245,1.03676354885101,-3.9678852558136,9.41571965813637E-03
100.246,1.0378829240799,-3.9673593044281,9.23839583992958E-03
100.247,1.03726768493652,-3.96705889701843,9.10692010074854E-03
100.248,1.03472828865051,-3.96701312065125,9.02867130935192E-03
100.249,1.03007137775421,-3.96724033355713,9.00778360664845E-03
100.25,1.02307391166687,-3.96776795387268,9.05280373990536E-03
100.251,1.01350653171539,-3.96860980987549,9.16886702179909E-03
100.252,1.00110518932343,-3.96979260444641,9.36574675142765E-03
100.253,.985589504241943,-3.97131419181824,9.65030025690794E-03
100.254,.966643512248993,-3.97319102287293,1.00339595228434E-02
100.255,.943926811218262,-3.97540545463562,1.05253662914038E-02
100.256,.917048633098602,-3.97794055938721,1.11382976174355E-02
100.257,.885592520236969,-3.98074698448181,1.18831051513553E-02
100.258,.849079489707947,-3.98377156257629,1.27770649269223E-02
100.259,.806980788707733,-3.98692011833191,.01383669488132
100.26,.758713781833649,-3.99005103111267,1.50785986334085E-02
100.261,.703617513179779,-3.9929838180542,1.65252555161715E-02
100.262,.640958726406097,-3.99545669555664,1.81985571980476E-02
100.263,.569906532764435,-3.99714589118958,2.01269201934338E-02
100.264,.489538222551346,-3.99758720397949,2.23395358771086E-02
100.265,.398831456899643,-3.99620842933655,2.48720869421959E-02
100.266,.296661883592606,-3.99222373962402,2.77629960328341E-02
100.267,.181816041469574,-3.98464822769165,3.10577284544706E-02
100.268,5.30032142996788E-02,-3.97217845916748,3.48056852817535E-02
100.269,-9.19017270207405E-02,-3.98030138015747,3.90558615326881E-02
100.27,-.256101489067078,-3.99132990837097,4.38513308763504E-02
100.271,-.441756963729858,-3.99553942680359,4.92816008627415E-02
100.272,-.650985419750214,-3.98985171318054,5.54191209375858E-02
100.273,-.885654747486115,-3.97031807899475,6.23385831713676E-02
100.274,-1.14708518981934,-3.93200421333313,7.01144114136696E-02
100.275,-1.43558061122894,-3.86899900436401,7.88127034902573E-02
100.276,-1.74988639354706,-3.77455377578735,8.84843990206718E-02
100.277,-2.08653521537781,-3.64149522781372,9.91532430052757E-02
100.278,-2.43929886817932,-3.46304774284363,.110802598297596
100.279,-2.79893064498901,-3.23397994041443,.123363167047501
100.28,-3.15349912643433,-2.95197820663452,.136704534292221
100.281,-3.50314855575562,-2.64012813568115,.149525001645088
100.282,-3.86131763458252,-2.32714486122131,.160092234611511
100.283,-4.18839359283447,-1.96938562393188,.170724362134933
100.284,-4.47408580780029,-1.57813918590546,.181229144334793
100.285,-4.71223735809326,-1.16672134399414,.191439926624298
100.286,-4.90110492706299,-.748560905456543,.201208457350731
100.287,-5.0426812171936,-.335316836833954,.21045295894146
100.288,-5.14156818389893,6.38424754142761E-02,.21911633014679
100.289,-5.20372724533081,.442601621150971,.227184042334557
100.29,-5.23572587966919,.795404374599457,.234365940093994
100.291,-5.25045108795166,1.0859466791153,.234755948185921
100.292,-5.24943542480469,1.35454547405243,.235129699110985
100.293,-5.23621654510498,1.60163402557373,.235501930117607
100.294,-5.21383571624756,1.82804036140442,.235860526561737
100.295,-5.1847677230835,2.03490972518921,.236213207244873
100.296,-5.15103912353516,2.22345018386841,.236561074852943
100.297,-5.11431312561035,2.39485192298889,.236904948949814
100.298,-5.07596206665039,2.550208568573,.237240269780159
100.299,-5.03705835342407,2.69054007530212,.237582504749298
100.3,-4.99860334396362,2.81664848327637,.237915471196175
100.301,-4.96137714385986,2.92925429344177,.238248974084854
100.302,-4.92608118057251,3.02889776229858,.238581523299217
