Structure Acceleration, RAO-Based Response
Line A: Structure Acceleration, RAO-Based Response - Global Z (Trimaran - Center of Gravity relative to Origin of Fixed Reference Axes (FRA)) [mm/s²]

*Time (s),Line A (mm/s²)
99.7,-23.4584957361221
99.701,-23.4817862510681
99.702,-23.5051810741425
99.703,-23.5283058136702
99.70399,-23.5515348613262
99.70499,-23.5744938254356
99.70599,-23.5975533723831
99.707,-23.6205328255892
99.708,-23.6432328820229
99.709,-23.6660446971655
99.71,-23.6885845661163
99.711,-23.7112268805504
99.712,-23.7335972487926
99.713,-23.7562470138073
99.714,-23.7784497439861
99.715,-23.8007493317127
99.716,-23.8227862864733
99.717,-23.844912648201
99.71799,-23.866780102253
99.71899,-23.8889176398516
99.71999,-23.9106174558401
99.721,-23.9324029535055
99.722,-23.9541083574295
99.723,-23.9757243543863
99.724,-23.9972583949566
99.725,-24.0185298025608
99.726,-24.0398906171322
99.727,-24.0611638873816
99.728,-24.0823514759541
99.729,-24.1032857447863
99.73,-24.1244714707136
99.731,-24.1452306509018
99.73199,-24.166077375412
99.73299,-24.1868328303099
99.73399,-24.2073405534029
99.735,-24.228086695075
99.736,-24.2485795170069
99.737,-24.2689978331327
99.738,-24.2893155664206
99.739,-24.3095587939024
99.74,-24.3295449763536
99.741,-24.3497658520937
99.742,-24.3695862591267
99.743,-24.3896320462227
99.744,-24.4092755019665
99.745,-24.4289897382259
99.74599,-24.4486164301634
99.74699,-24.4681555777788
99.74799,-24.4876053184271
99.749,-24.507125839591
99.75,-24.5264004915953
99.751,-24.5455894619226
99.752,-24.5648454874754
99.753,-24.5837066322565
99.754,-24.6027857065201
99.755,-24.6214661747217
99.756,-24.6403645724058
99.757,-24.6590245515108
99.758,-24.6774461120367
99.759,-24.6960800141096
99.75999,-24.714469909668
99.76099,-24.7327797114849
99.76199,-24.7509963810444
99.763,-24.76941421628
99.764,-24.7873086482286
99.765,-24.8054061084986
99.766,-24.8232707381248
99.767,-24.8410385102034
99.768,-24.858720600605
99.769,-24.8764604330063
99.77,-24.8939618468285
99.771,-24.9112397432327
99.772,-24.9287076294422
99.77299,-24.9459445476532
99.77399,-24.9632317572832
99.77499,-24.9802898615599
99.77599,-24.9973963946104
99.777,-25.0142756849527
99.778,-25.0311978161335
99.779,-25.0478964298964
99.78,-25.0646378844976
99.781,-25.0811595469713
99.782,-25.097718462348
99.783,-25.1140594482422
99.784,-25.1303054392338
99.785,-25.146596133709
99.786,-25.1626670360565
99.78699,-25.1786410808563
99.78799,-25.1945294439793
99.78899,-25.2104550600052
99.78999,-25.2261627465487
99.791,-25.242030620575
99.792,-25.2575613558292
99.793,-25.2731181681156
99.794,-25.2885818481445
99.795,-25.3038350492716
99.796,-25.319118052721
99.797,-25.3341887146235
99.798,-25.3492873162031
99.799,-25.3641791641712
99.8,-25.3790933638811
99.80099,-25.3937970846891
99.80199,-25.4085343331099
99.80299,-25.4230555146933
99.80399,-25.4377238452435
99.805,-25.4521798342466
99.806,-25.4665408283472
99.807,-25.4806969314814
99.808,-25.4947617650032
99.809,-25.508850812912
99.81,-25.522843003273
99.811,-25.5367439240217
99.812,-25.5504436790943
99.813,-25.5641583353281
99.814,-25.5777798593044
99.81499,-25.5913138389587
99.81599,-25.6046410650015
99.81699,-25.6180912256241
99.81799,-25.6312377750874
99.819,-25.6444998085499
99.82,-25.6575662642717
99.821,-25.6704315543175
99.822,-25.6833117455244
99.823,-25.6960969418287
99.824,-25.7087871432304
99.825,-25.7212873548269
99.826,-25.7338937371969
99.827,-25.7462039589882
99.828,-25.7586184889078
99.82899,-25.7707443088293
99.82999,-25.7828738540411
99.83099,-25.7949158549309
99.832,-25.8069522678852
99.833,-25.8188024163246
99.834,-25.8304607123137
99.835,-25.8422140032053
99.836,-25.8536878973246
99.837,-25.8652605116367
99.838,-25.8765444159508
99.839,-25.8879233151674
99.84,-25.8991122245789
99.841,-25.9102061390877
99.842,-25.9212125092745
99.84299,-25.9321220219135
99.84399,-25.94293653965
99.84499,-25.9537417441607
99.846,-25.9643644094467
99.847,-25.9748958051205
99.848,-25.9853359311819
99.849,-25.9956773370504
99.85,-26.0059963911772
99.851,-26.0161571204662
99.852,-26.0262098163366
99.853,-26.0361731052399
99.854,-26.0461233556271
99.855,-26.0558165609837
99.856,-26.0655730962753
99.85699,-26.0751508176327
99.85799,-26.0847173631191
99.85899,-26.0940343141556
99.86,-26.1034071445465
99.861,-26.1126831173897
99.862,-26.1217933148146
99.863,-26.1308755725622
99.864,-26.1397939175367
99.865,-26.1486116796732
99.866,-26.1573400348425
99.867,-26.1660367250443
99.868,-26.1745750904083
99.869,-26.1830780655146
99.87,-26.1914283037186
99.87099,-26.1997412890196
99.87199,-26.2078940868378
99.87299,-26.2159537523985
99.874,-26.2240469455719
99.875,-26.231911033392
99.876,-26.2397453188896
99.877,-26.2474175542593
99.878,-26.2550562620163
99.879,-26.2625403702259
99.88,-26.2699853628874
99.881,-26.2772757560015
99.882,-26.2845307588577
99.883,-26.2916292995214
99.884,-26.2986309826374
99.88499,-26.3055935502052
99.88599,-26.312405243516
99.88699,-26.3191722333431
99.888,-26.3258460909128
99.889,-26.3324212282896
99.89,-26.3388976454735
99.891,-26.3452753424644
99.892,-26.3515114784241
99.893,-26.3576991856098
99.894,-26.3637434691191
99.895,-26.3697821646929
99.896,-26.3756308704615
99.897,-26.3813827186823
99.89799,-26.3870824128389
99.89899,-26.3926908373833
99.89999,-26.3981949537992
99.90099,-26.4035612344742
99.902,-26.4089163392782
99.903,-26.4141317456961
99.904,-26.4192447066307
99.905,-26.4242254197598
99.906,-26.4291856437922
99.907,-26.4339726418257
99.908,-26.4386981725693
99.909,-26.4433287084103
99.91,-26.4478214085102
99.911,-26.4522954821587
99.91199,-26.4565907418728
99.91299,-26.460837572813
99.91399,-26.4649763703346
99.91499,-26.4690183103085
99.916,-26.4729969203472
99.917,-26.4768414199352
99.918,-26.4805927872658
99.919,-26.4842417091131
99.92,-26.4878012239933
99.921,-26.4912545681
99.922,-26.4946147799492
99.923,-26.4978520572186
99.924,-26.5010390430689
99.925,-26.5040993690491
99.92599,-26.5070684254169
99.92699,-26.5099387615919
99.92799,-26.512710377574
99.92899,-26.5153851360083
99.93,-26.5179965645075
99.931,-26.5204552561045
99.932,-26.5228506177664
99.933,-26.5251342207193
99.934,-26.5272967517376
99.935,-26.5293996781111
99.936,-26.5313889831305
99.937,-26.5332739800215
99.938,-26.5350602567196
99.939,-26.5367683023214
99.93999,-26.5383645892143
99.94099,-26.5398565679789
99.94199,-26.5412572771311
99.94299,-26.542566716671
99.944,-26.5437737107277
99.945,-26.5448838472366
99.946,-26.5458896756172
99.947,-26.5467911958694
99.948,-26.5476033091545
99.949,-26.5483092516661
99.95,-26.5489257872105
99.951,-26.5494380146265
99.952,-26.5498533844948
99.953,-26.5501718968153
99.95399,-26.5503954142332
99.95499,-26.5505108982325
99.95599,-26.5505257993937
99.957,-26.5504475682974
99.958,-26.5502687543631
99.959,-26.5499968081713
99.96,-26.549618691206
99.961,-26.5491474419832
99.962,-26.5485793352127
99.963,-26.5479050576687
99.964,-26.5471339225769
99.965,-26.5462640672922
99.966,-26.5452954918146
99.967,-26.5442300587893
99.96799,-26.5430696308613
99.96899,-26.5417862683535
99.96999,-26.5404246747494
99.971,-26.5389457345009
99.972,-26.5373848378658
99.973,-26.5357363969088
99.974,-26.5339706093073
99.975,-26.5321042388678
99.976,-26.530135422945
99.977,-26.5280921012163
99.978,-26.5259314328432
99.979,-26.5236645936966
99.98,-26.5213046222925
99.981,-26.5188664197922
99.98199,-26.5162792056799
99.98299,-26.5136454254389
99.98399,-26.5108831226826
99.985,-26.5080034732819
99.986,-26.5050604939461
99.987,-26.5020094811916
99.988,-26.4988485723734
99.989,-26.4955945312977
99.99,-26.4922343194485
99.991,-26.4887791126966
99.992,-26.4852270483971
99.993,-26.4815725386143
99.994,-26.4778155833483
99.995,-26.4739654958248
99.99599,-26.4700129628181
99.99699,-26.4659579843283
99.99799,-26.4618098735809
99.999,-26.4575593173504
100,-26.4531783759594
100.001,-26.4487247914076
100.002,-26.4441762119532
100.003,-26.439530774951
100.004,-26.4347456395626
100.005,-26.4299362897873
100.006,-26.4249537140131
100.007,-26.4199040830135
100.008,-26.4147613197565
100.009,-26.4095198363066
100.00999,-26.4041349291801
100.01099,-26.3986960053444
100.01199,-26.3931974768639
100.013,-26.38746984303
100.014,-26.3817273080349
100.015,-26.3758357614279
100.016,-26.3699032366276
100.017,-26.3638701289892
100.018,-26.3577308505774
100.019,-26.3514462858438
100.02,-26.3451132923365
100.021,-26.338629424572
100.022,-26.3320952653885
100.02299,-26.3254102319479
100.02399,-26.3186767697334
100.02499,-26.3118464499712
100.02599,-26.3048708438873
100.027,-26.2977872043848
100.028,-26.2906029820442
100.029,-26.2833740562201
100.03,-26.2759868055582
100.031,-26.2685604393482
100.032,-26.2609254568815
100.033,-26.2532960623503
100.034,-26.2455157935619
100.035,-26.2376964092255
100.036,-26.2297764420509
100.03699,-26.2216236442327
100.03799,-26.2135118246078
100.03899,-26.2052305042744
100.03999,-26.1969212442636
100.041,-26.1883027851582
100.042,-26.1797867715359
100.043,-26.1711105704308
100.044,-26.1623300611973
100.045,-26.153452694416
100.046,-26.1445418000221
100.047,-26.1353924870491
100.048,-26.1262897402048
100.049,-26.1170119047165
100.05,-26.1076372116804
100.05099,-26.0981563478708
100.05199,-26.0885804891586
100.05299,-26.0789077728987
100.05399,-26.0691326111555
100.055,-26.0591804981232
100.056,-26.0492097586393
100.057,-26.0391365736723
100.058,-26.0288901627064
100.059,-26.0186996310949
100.06,-26.0082446038723
100.061,-25.9977746754885
100.062,-25.9872879832983
100.063,-25.9765405207872
100.064,-25.9657725691795
100.06499,-25.9548164904118
100.06599,-25.9439405053854
100.06699,-25.932788848877
100.06799,-25.9216222912073
100.069,-25.910185649991
100.07,-25.8988253772259
100.071,-25.8872751146555
100.072,-25.87572298944
100.073,-25.8640609681606
100.074,-25.8522983640432
100.075,-25.8404444903135
100.076,-25.8284006267786
100.077,-25.8163474500179
100.078,-25.804104283452
100.07899,-25.7917586714029
100.07999,-25.7793106138706
100.08099,-25.7668644189835
100.082,-25.7541183382273
100.083,-25.7414728403091
100.084,-25.7286336272955
100.085,-25.7157869637012
100.086,-25.7027521729469
100.087,-25.6896074861288
100.088,-25.6764683872461
100.089,-25.6631281226873
100.09,-25.6496835500002
100.091,-25.6361458450556
100.092,-25.6226155906916
100.09299,-25.6087761372328
100.09399,-25.5950447171926
100.09499,-25.5811121314764
100.096,-25.5669709295034
100.097,-25.5528353154659
100.098,-25.5386102944613
100.099,-25.524390861392
100.1,-25.5098510533571
100.101,-25.4954360425472
100.102,-25.4806950688362
100.103,-25.4660863429308
100.104,-25.4511460661888
100.105,-25.4362244158983
100.106,-25.4212096333504
100.10699,-25.4060924053192
100.10799,-25.3907572478056
100.10899,-25.375559926033
100.11,-25.3599062561989
100.111,-25.3443960100412
100.112,-25.3287870436907
100.113,-25.3129545599222
100.114,-25.2972710877657
100.115,-25.2812448889017
100.116,-25.2652373164892
100.117,-25.2490136772394
100.118,-25.2328123897314
100.119,-25.2163913100958
100.12,-25.1999963074923
100.12099,-25.183379650116
100.12199,-25.1667834818363
100.12299,-25.1499693840742
100.124,-25.1330621540546
100.125,-25.1161679625511
100.126,-25.0990614295006
100.127,-25.0819828361273
100.128,-25.0646714121103
100.129,-25.0472724437714
100.13,-25.029769167304
100.131,-25.0122975558043
100.132,-24.9945968389511
100.133,-24.9767974019051
100.134,-24.9589011073112
100.13499,-24.9410439282656
100.13599,-24.9228123575449
100.13699,-24.9047577381134
100.138,-24.8864740133286
100.139,-24.867944419384
100.14,-24.8496048152447
100.141,-24.8308777809143
100.142,-24.812338873744
100.143,-24.7934237122536
100.144,-24.7746929526329
100.145,-24.7555803507566
100.146,-24.7366614639759
100.147,-24.717353284359
100.14799,-24.698082357645
100.14899,-24.6787220239639
100.14999,-24.6592666953802
100.15099,-24.6397145092487
100.152,-24.6199052780867
100.153,-24.60016310215
100.154,-24.5801657438278
100.155,-24.5602242648602
100.156,-24.540189653635
100.157,-24.520056322217
100.158,-24.4996696710587
100.159,-24.4793407618999
100.16,-24.4587622582912
100.161,-24.438239634037
100.16199,-24.4174674153328
100.16299,-24.3967585265636
100.16399,-24.3759527802467
100.16499,-24.3548844009638
100.166,-24.333730340004
100.167,-24.3124663829803
100.168,-24.2912769317627
100.169,-24.2698229849339
100.17,-24.2484379559755
100.171,-24.2267958819866
100.172,-24.2050550878048
100.173,-24.1832118481398
100.174,-24.1614542901516
100.175,-24.1395961493254
100.17599,-24.1172946989536
100.17699,-24.095244705677
100.17799,-24.0729283541441
100.17899,-24.050509557128
100.18,-24.0278318524361
100.181,-24.0052305161953
100.182,-23.9825304597616
100.183,-23.9599030464888
100.184,-23.9368341863155
100.185,-23.9140298217535
100.186,-23.8907653838396
100.187,-23.8675903528929
100.188,-23.8444991409779
100.189,-23.8209515810013
100.18999,-23.7976722419262
100.19099,-23.7739384174347
100.19199,-23.7502921372652
100.19299,-23.7263590097427
100.194,-23.7025208771229
100.195,-23.6783977597952
100.196,-23.6543640494347
100.197,-23.6300621181726
100.198,-23.6060302704573
100.199,-23.5815290361643
100.2,-23.5571190714836
100.201,-23.5326252877712
100.202,-23.5078427940607
100.203,-23.4831534326077
100.20399,-23.4581828117371
100.20499,-23.4333053231239
100.20599,-23.4081447124481
100.207,-23.3828872442245
100.208,-23.3575403690338
100.209,-23.3322940766811
100.21,-23.3067572116852
100.211,-23.2811253517866
100.212,-23.2553966343403
100.213,-23.2297722250223
100.214,-23.2040528208017
100.215,-23.1780540198088
100.216,-23.151945322752
100.217,-23.1257639825344
100.21799,-23.0996683239937
100.21899,-23.0731032788754
100.21999,-23.0468325316906
100.221,-23.0200625956059
100.222,-22.9934025555849
100.223,-22.966654971242
100.224,-22.9398123919964
100.225,-22.9130778461695
100.226,-22.8858422487974
100.227,-22.8589214384556
100.228,-22.8315051645041
100.229,-22.8042006492615
100.23,-22.7768011391163
100.231,-22.7493084967136
100.23199,-22.7215215563774
100.23299,-22.6940624415874
100.23399,-22.6660948246717
100.235,-22.6380247622728
100.236,-22.6100776344538
100.237,-22.5820373743773
100.238,-22.5539095699787
100.239,-22.5254707038403
100.24,-22.4971603602171
100.241,-22.468538954854
100.242,-22.4400386214256
100.243,-22.4112402647734
100.244,-22.3825685679913
100.245,-22.3535764962435
100.24599,-22.324725985527
100.24699,-22.2955588251352
100.24799,-22.2665276378393
100.249,-22.2369600087404
100.25,-22.2077406942844
100.251,-22.1784338355064
100.252,-22.1488066017628
100.253,-22.1193227916956
100.254,-22.08929695189
100.255,-22.059628739953
100.256,-22.0296569168568
100.257,-21.9998136162758
100.258,-21.9694264233112
100.259,-21.9394043087959
100.25999,-21.9090674072504
100.26099,-21.8786429613829
100.26199,-21.8481216579676
100.263,-21.8172874301672
100.264,-21.7868220061064
100.265,-21.7558071017265
100.266,-21.725170314312
100.267,-21.6939728707075
100.268,-21.6631609946489
100.269,-21.631782874465
100.27,-21.6005574911833
100.271,-21.5692427009344
100.272,-21.5378403663635
100.27299,-21.5061102062464
100.27399,-21.4747693389654
100.27499,-21.4428678154945
100.27599,-21.4111171662807
100.277,-21.3790349662304
100.278,-21.347101777792
100.279,-21.3150940835476
100.28,-21.282747387886
100.281,-21.2505534291267
100.282,-21.2180279195309
100.283,-21.1856625974178
100.284,-21.1529806256294
100.285,-21.1204439401627
100.286,-21.0875812917948
100.28699,-21.054869517684
100.28799,-21.0218355059624
100.28899,-20.9889486432076
100.28999,-20.9559854120016
100.291,-20.922439172864
100.292,-20.8893083035946
100.293,-20.8555795252323
100.294,-20.8222735673189
100.295,-20.7886397838593
100.296,-20.7551587373018
100.297,-20.7210835069418
100.298,-20.6874385476112
100.299,-20.6534676253796
100.3,-20.6193961203098
