Structure Acceleration, RAO-Based Response
Line A: Structure Acceleration, RAO-Based Response - Global Z (Trimaran - Center of Gravity relative to Origin of Fixed Reference Axes (FRA)) [mm/s²]

*Time (s),Line A (mm/s²)
99.4,-3.09062446467578
99.401,-3.11603280715644
99.402,-3.14163649454713
99.403,-3.16702271811664
99.404,-3.19239753298461
99.405,-3.21796745993197
99.406,-3.24331969022751
99.40701,-3.26907238923013
99.408,-3.2944050617516
99.409,-3.31992795690894
99.41,-3.34523338824511
99.411,-3.37073369883001
99.412,-3.39601561427116
99.413,-3.4214910119772
99.414,-3.44674894586205
99.415,-3.47199244424701
99.416,-3.49743152037263
99.417,-3.52265243418515
99.418,-3.54806613177061
99.419,-3.5732623655349
99.42,-3.59865161590278
99.42101,-3.62402759492397
99.422,-3.64938727580011
99.423,-3.67453205399215
99.424,-3.69987124577165
99.425,-3.72499064542353
99.426,-3.75029956921935
99.427,-3.77538800239563
99.428,-3.80046735517681
99.429,-3.82573693059385
99.43,-3.8507916033268
99.431,-3.87603277340531
99.432,-3.90106160193682
99.433,-3.92627622932196
99.434,-3.95126920193434
99.43501,-3.97666078060865
99.436,-4.00162488222122
99.437,-4.02678363025188
99.438,-4.05172305181623
99.439,-4.07685153186321
99.44,-4.10176301375031
99.441,-4.12665819749236
99.442,-4.15174290537834
99.443,-4.1766120120883
99.444,-4.20166365802288
99.445,-4.22650296241045
99.446,-4.25152666866779
99.447,-4.27633617073298
99.448,-4.30132541805506
99.44901,-4.32630535215139
99.45,-4.35126200318336
99.451,-4.37601190060377
99.452,-4.40094154328108
99.453,-4.42565279081464
99.454,-4.45035053417087
99.455,-4.47523407638073
99.456,-4.49990062043071
99.457,-4.52475249767303
99.458,-4.5493827201426
99.459,-4.57420200109482
99.46,-4.5987986959517
99.461,-4.62357979267836
99.462,-4.64814901351929
99.46301,-4.67309961095452
99.464,-4.69763204455376
99.465,-4.72215004265308
99.466,-4.74684406071901
99.467,-4.77112550288439
99.468,-4.79578692466021
99.469,-4.82023321092129
99.47,-4.84485877677798
99.471,-4.86926827579737
99.472,-4.89385612308979
99.473,-4.91823349148035
99.474,-4.94278268888593
99.475,-4.96711768209934
99.476,-4.99163335189223
99.47701,-5.01612666994333
99.478,-5.04040252417326
99.479,-5.06485998630524
99.48,-5.0890976563096
99.481,-5.11351134628057
99.482,-5.13771176338196
99.483,-5.16208587214351
99.484,-5.18624391406775
99.485,-5.21037820726633
99.486,-5.23449340835214
99.487,-5.25877811014652
99.488,-5.28285186737776
99.489,-5.30708953738213
99.49,-5.33111393451691
99.491,-5.35530317574739
99.492,-5.37947565317154
99.493,-5.40342694148421
99.494,-5.42754400521517
99.495,-5.45124895870686
99.496,-5.47531433403492
99.497,-5.4991552606225
99.498,-5.52317127585411
99.499,-5.54695958271623
99.5,-5.57090854272246
99.501,-5.59463538229465
99.502,-5.61833754181862
99.503,-5.64200012013316
99.504,-5.66562730818987
99.505,-5.68961538374424
99.506,-5.71317691355944
99.507,-5.73670398443937
99.508,-5.76018635183573
99.509,-5.78382378444076
99.51,-5.80723583698273
99.511,-5.83060551434755
99.512,-5.85392536595464
99.513,-5.87739888578653
99.514,-5.90063212439418
99.515,-5.92380668967962
99.516,-5.94694260507822
99.517,-5.97001984715462
99.518,-5.99304120987654
99.519,-6.01620133966208
99.52,-6.03930139914155
99.521,-6.06194883584976
99.522,-6.08491664752364
99.523,-6.10762368887663
99.524,-6.13026320934296
99.525,-6.15282077342272
99.526,-6.17549614980817
99.527,-6.19770772755146
99.528,-6.22021034359932
99.529,-6.24223798513412
99.53,-6.26436434686184
99.531,-6.28637988120317
99.53201,-6.30849087610841
99.533,-6.33028335869312
99.534,-6.35197013616562
99.535,-6.37352280318737
99.536,-6.39493949711323
99.537,-6.41622021794319
99.538,-6.43734354525805
99.539,-6.45830761641264
99.54,-6.47910917177796
99.541,-6.49972259998322
99.542,-6.51995744556189
99.543,-6.54017273336649
99.544,-6.56016450375319
99.545,-6.5797371789813
99.54601,-6.59960880875587
99.547,-6.61866134032607
99.548,-6.63760490715504
99.549,-6.65604323148727
99.55,-6.67433626949787
99.551,-6.69226469472051
99.552,-6.70980289578438
99.553,-6.72672130167484
99.554,-6.74318009987473
99.555,-6.75931479781866
99.556,-6.77471980452538
99.557,-6.78970292210579
99.558,-6.80384272709489
99.559,-6.81745260953903
99.56001,-6.83025829493999
99.561,-6.84219133108854
99.562,-6.85297604650259
99.563,-6.86269346624613
99.564,-6.87121273949742
99.565,-6.8785771727562
99.566,-6.88428152352571
99.567,-6.88814278692007
99.568,-6.8904822692275
99.569,-6.89035933464766
99.57,-6.88818702474236
99.571,-6.88295904546976
99.572,-6.87499064952135
99.573,-6.86318054795265
99.57401,-6.84770755469799
99.575,-6.82751927524805
99.576,-6.80216122418642
99.577,-6.77079381421208
99.578,-6.73301331698895
99.579,-6.68782414868474
99.58,-6.66276551783085
99.581,-6.66168192401528
99.582,-6.65721902623773
99.583,-6.64927484467626
99.584,-6.63774600252509
99.585,-6.62287324666977
99.586,-6.60458533093333
99.587,-6.58402964472771
99.58801,-6.56155683100224
99.589,-6.59697689116001
99.59,-6.64785830304027
99.591,-6.69519370421767
99.592,-6.73888018354774
99.593,-6.77947560325265
99.594,-6.81717414408922
99.595,-6.85218255966902
99.596,-6.88511645421386
99.597,-6.91598281264305
99.598,-6.94533437490463
99.599,-6.97310920804739
99.6,-6.99978694319725
99.601,-7.02524604275823
99.60201,-7.04991118982434
99.603,-7.07360217347741
99.604,-7.09641631692648
99.605,-7.1317870169878
99.606,-7.16641964390874
99.607,-7.19912303611636
99.608,-7.22991628572345
99.609,-7.25896190851927
99.61,-7.28623243048787
99.611,-7.31216091662645
99.612,-7.33639439567924
99.613,-7.35963461920619
99.614,-7.3813577182591
99.615,-7.40225287154317
99.616,-7.42193497717381
99.617,-7.44046829640865
99.618,-7.45822349563241
99.619,-7.47494772076607
99.62,-7.4909976683557
99.621,-7.50597566366196
99.622,-7.52053130418062
99.623,-7.53411883488297
99.624,-7.5472230091691
99.625,-7.55961053073406
99.626,-7.57161248475313
99.627,-7.58299324661493
99.628,-7.59393954649568
99.629,-7.60437268763781
99.63,-7.61464377865195
99.631,-7.62466760352254
99.632,-7.63437151908875
99.633,-7.64411687850952
99.634,-7.65354372560978
99.635,-7.66330026090145
99.636,-7.67289847135544
99.637,-7.68284313380718
99.638,-7.69293028861284
99.639,-7.70352687686682
99.64,-7.71430274471641
99.641,-7.72595498710871
99.642,-7.74110341444612
99.643,-7.75642180815339
99.644,-7.77193391695619
99.645,-7.78740178793669
99.646,-7.80341308563948
99.647,-7.81944394111633
99.648,-7.83594977110624
99.649,-7.85269122570753
99.65,-7.87139777094126
99.651,-7.89477955549955
99.652,-7.92023725807667
99.653,-7.94796086847782
99.654,-7.97815900295973
99.655,-8.01089033484459
99.656,-8.04636348038912
99.65701,-8.0853495746851
99.658,-8.12721438705921
99.659,-8.17271694540977
99.66,-8.22174828499556
99.661,-8.27459804713726
99.662,-8.33136215806007
99.663,-8.39208252727985
99.664,-8.45643971115351
99.665,-8.52487701922655
99.666,-8.59658792614937
99.667,-8.67166556417942
99.668,-8.74919816851616
99.669,-8.82890727370977
99.67,-8.9102741330862
99.67101,-8.9924018830061
99.672,-9.07433405518532
99.673,-9.15511604398489
99.674,-9.23456996679306
99.675,-9.31937154382467
99.676,-9.4014210626483
99.677,-9.47878882288933
99.678,-9.55115258693695
99.679,-9.61777847260237
99.68,-9.67829860746861
99.681,-9.73206479102373
99.682,-9.77860204875469
99.683,-9.8177557811141
99.684,-9.84853319823742
99.68501,-9.87109076231718
99.686,-9.88408923149109
99.687,-9.8876878619194
99.688,-9.88095626235008
99.689,-9.86389443278313
99.69,-9.83626954257488
99.691,-9.79848019778728
99.692,-9.75092872977257
99.693,-9.69538278877735
99.694,-9.63332317769527
99.695,-9.56761464476585
99.696,-9.51078068464994
99.697,-9.45610180497169
99.698,-9.40708536654711
99.69901,-9.36630181968212
99.7,-9.33632254600525
99.701,-9.31918993592262
99.702,-9.31715779006481
99.703,-9.33135859668255
99.704,-9.36294160783291
99.705,-9.41213313490152
99.706,-9.47898346930742
99.707,-9.56220086663961
99.708,-9.65889077633619
99.709,-9.76594723761082
99.71,-9.88826248794794
99.711,-10.0083509460092
99.712,-10.1188076660037
99.71301,-10.2139674127102
99.714,-10.2883242070675
99.715,-10.3389462456107
99.716,-10.3629622608423
99.717,-10.3593915700912
99.718,-10.3278728201985
99.719,-10.2704679593444
99.72,-10.1912636309862
99.721,-10.0975167006254
99.722,-9.99941490590572
99.723,-9.91044566035271
99.724,-9.84633900225163
99.725,-9.80677548795938
99.726,-9.79818683117628
99.72701,-9.82356816530228
99.728,-9.88379027694464
99.729,-9.975740686059
99.73,-10.101705789566
99.731,-10.2427434176207
99.732,-10.3799607604742
99.733,-10.4963909834623
99.734,-10.578153654933
99.735,-10.6168035417795
99.736,-10.6080919504166
99.737,-10.5534307658672
99.738,-10.4599632322788
99.739,-10.3432331234217
99.74,-10.2243460714817
99.741,-10.1275779306889
99.742,-10.0765377283096
99.743,-10.0766094401479
99.744,-10.1296342909336
99.745,-10.2401887997985
99.746,-10.3875137865543
99.747,-10.5433240532875
99.748,-10.6760151684284
99.749,-10.7595659792423
99.75,-10.778896510601
99.751,-10.7307527214289
99.752,-10.6258429586887
99.753,-10.4891285300255
99.754,-10.3585040196776
99.755,-10.2715333923697
99.756,-10.2542638778687
99.757,-10.3160496801138
99.758,-10.4461722075939
99.759,-10.6129972264171
99.76,-10.7695618644357
99.761,-10.8721284195781
99.762,-10.8946245163679
99.763,-10.8331898227334
99.764,-10.7062393799424
99.765,-10.5551816523075
99.766,-10.431301780045
99.767,-10.3765586391091
99.76801,-10.40961407125
99.769,-10.5242943391204
99.77,-10.6892613694072
99.771,-10.8531881123781
99.772,-10.9664062038064
99.773,-10.9985182061791
99.774,-10.9443487599492
99.775,-10.8217401430011
99.776,-10.6702260673046
99.777,-10.5393948033452
99.778,-10.4702329263091
99.779,-10.4819377884269
99.78,-10.5727538466454
99.781,-10.7201021164656
99.78201,-10.8849927783012
99.783,-11.024322360754
99.784,-11.1057851463556
99.785,-11.1162355169654
99.786,-11.057841591537
99.787,-10.9465923160315
99.788,-10.8097419142723
99.789,-10.6800040230155
99.79,-10.5848424136639
99.791,-10.5413962155581
99.792,-10.5539700016379
99.793,-10.6190368533134
99.794,-10.7254311442375
99.795,-10.8575196936727
99.79601,-10.9973698854446
99.797,-11.12718321383
99.798,-11.2345656380057
99.799,-11.3125406205654
99.8,-11.3600455224514
99.801,-11.3787092268467
99.802,-11.3730439916253
99.803,-11.3477967679501
99.804,-11.3085387274623
99.805,-11.2607358023524
99.806,-11.2098241224885
99.807,-11.1605748534203
99.808,-11.1179696395993
99.809,-11.0870050266385
99.81001,-11.0723609104753
99.811,-11.079303920269
99.812,-11.1136324703693
99.813,-11.1830849200487
99.814,-11.2955551594496
99.815,-11.4600555971265
99.816,-11.6822822019458
99.817,-11.9618093594909
99.818,-12.1238911524415
99.819,-12.249518185854
99.82,-12.3767955228686
99.821,-12.4910324811935
99.822,-12.5778280198574
99.823,-12.6233361661434
99.82401,-12.6147605478764
99.825,-12.543392367661
99.826,-12.4245248734951
99.827,-12.3069165274501
99.828,-12.1337687596679
99.829,-12.0332259684801
99.83,-12.1719669550657
99.831,-12.416428886354
99.832,-12.6141961663961
99.833,-12.7718904986978
99.834,-12.783432379365
99.835,-12.6452017575502
99.836,-12.5012462958694
99.837,-12.4038243666291
99.83801,-12.6036088913679
99.839,-12.8396544605494
99.84,-12.9536846652627
99.841,-12.8138177096844
99.842,-12.6614132896066
99.843,-12.7141634002328
99.844,-12.9655199125409
99.845,-13.0857089534402
99.846,-12.8924855962396
99.847,-12.8141846507788
99.848,-13.0343930795789
99.849,-13.2146487012506
99.85,-13.0066806450486
99.851,-12.9752000793815
99.85201,-13.2691776379943
99.853,-13.2432514801621
99.854,-13.0637418478727
99.855,-13.3134936913848
99.856,-13.3815230801702
99.857,-13.1769003346562
99.858,-13.4513769298792
99.859,-13.4284216910601
99.86,-13.3135905489326
99.861,-13.6325350031257
99.862,-13.4035712108016
99.863,-13.5912830010056
99.864,-13.6120775714517
99.865,-13.5519653558731
99.866,-13.7817924842238
99.867,-13.5908210650086
99.868,-13.8850109651685
99.869,-13.668461702764
99.87,-13.9602022245526
99.871,-13.7618435546756
99.872,-14.0151521191001
99.873,-13.8826183974743
99.874,-14.024437405169
99.875,-14.0604674816132
99.876,-14.0000209212303
99.877,-14.2413591966033
99.878,-14.0712652355433
99.879,-14.2245162278414
99.88,-14.3256150186062
99.881,-14.1906198114157
99.882,-14.3586806952953
99.883,-14.4661702215672
99.884,-14.3451672047377
99.885,-14.4061800092459
99.886,-14.5914582535625
99.887,-14.603684656322
99.888,-14.5236356183887
99.889,-14.5523753017187
99.89,-14.6832754835486
99.891,-14.8026458919048
99.892,-14.834308065474
99.89301,-14.8108759894967
99.894,-14.7922886535525
99.895,-14.8034747689962
99.896,-14.8403467610478
99.897,-14.8904025554657
99.898,-14.9429775774479
99.899,-14.9909956380725
99.9,-15.0313163176179
99.901,-15.0631470605731
99.902,-15.0882611051202
99.903,-15.1113560423255
99.904,-15.1419369503856
99.905,-15.1926903054118
99.906,-15.274272300303
99.90701,-15.3764234855771
99.908,-15.4464496299624
99.909,-15.4281696304679
99.91,-15.3666641563177
99.911,-15.3894210234284
99.912,-15.527849085629
99.913,-15.5835691839457
99.914,-15.481436625123
99.915,-15.5329387634993
99.916,-15.6759060919285
99.917,-15.5611243098974
99.918,-15.6261678785086
99.919,-15.7107636332512
99.92,-15.5999697744846
99.92101,-15.769936144352
99.922,-15.6325362622738
99.923,-15.7904457300901
99.924,-15.6576856970787
99.925,-15.8128291368484
99.926,-15.6778711825609
99.927,-15.7909113913774
99.928,-15.7544650137424
99.929,-15.6973619014025
99.93,-15.8069413155317
99.931,-15.7483741641045
99.932,-15.6773459166288
99.933,-15.7316401600838
99.934,-15.7711300998926
99.93501,-15.7107096165419
99.936,-15.6350955367088
99.937,-15.6094999983907
99.938,-15.6244188547134
99.939,-15.6406313180923
99.94,-15.6267639249563
99.941,-15.5782848596573
99.942,-15.5099891126156
99.943,-15.4393520206213
99.944,-15.377763658762
99.945,-15.3294932097197
99.946,-15.294224023819
99.947,-15.2682298794389
99.948,-15.2436485514045
99.94901,-15.2090573683381
99.95,-15.1520119979978
99.951,-15.0670595467091
99.952,-14.9632878601551
99.953,-14.8657280951738
99.954,-14.8009536787868
99.955,-14.7745665162802
99.956,-14.7410240024328
99.957,-14.63314704597
99.958,-14.4946128129959
99.959,-14.4427549093962
99.96,-14.4271366298199
99.961,-14.2726702615619
99.962,-14.1881536692381
99.96301,-14.1708385199308
99.964,-13.9916809275746
99.965,-14.00276273489
99.966,-13.8178002089262
99.967,-13.8342287391424
99.968,-13.6508960276842
99.969,-13.6069655418396
99.97,-13.567853718996
99.971,-13.4200230240822
99.972,-13.3049050346017
99.973,-13.2324965670705
99.974,-13.1656611338258
99.975,-13.0874821916223
99.976,-12.9987997934222
99.97701,-12.920861132443
99.978,-12.8980129957199
99.979,-12.8854531794786
99.98,-12.7149522304535
99.981,-12.7239674329758
99.982,-12.5976130366325
99.983,-12.6692429184914
99.984,-12.4418959021568
99.985,-12.4146975576878
99.986,-12.4709773808718
99.987,-12.4643323943019
99.988,-12.3646194115281
99.989,-12.2504681348801
99.99,-12.2804716229439
99.991,-12.4064404517412
99.992,-12.2522888705134
99.993,-12.3667465522885
99.994,-12.3520195484161
99.995,-12.3218316584826
99.996,-12.3380180448294
99.997,-12.3756155371666
99.998,-12.455191463232
99.999,-12.5177316367626
100,-12.5094186514616
