Structure Acceleration, RAO-Based Response
Line A: Structure Acceleration, RAO-Based Response - Global Z (Trimaran - Center of Gravity relative to Origin of Fixed Reference Axes (FRA)) [mm/s²]

*Time (s),Line A (mm/s²)
99.4,-2.8984434902668
99.401,-2.91878450661898
99.402,-2.93928105384111
99.403,-2.95960158109665
99.404,-2.97991186380386
99.405,-3.00037628039718
99.406,-3.02066560834646
99.40701,-3.04127344861627
99.408,-3.06154089048505
99.409,-3.0819633975625
99.41,-3.10220941901207
99.411,-3.12260817736387
99.412,-3.14283184707165
99.413,-3.16320871934295
99.414,-3.18341050297022
99.415,-3.20360064506531
99.416,-3.2239428255707
99.417,-3.24411178007722
99.418,-3.26443137601018
99.419,-3.28457448631525
99.42,-3.30487312749028
99.42101,-3.32515779882669
99.422,-3.34543036296964
99.423,-3.36552830412984
99.424,-3.38577665388584
99.425,-3.40585014782846
99.426,-3.42607405036688
99.427,-3.44612216576934
99.428,-3.46615957096219
99.429,-3.48634785041213
99.43,-3.50636010989547
99.431,-3.52652184665203
99.432,-3.54650942608714
99.433,-3.56664741411805
99.434,-3.5866117104888
99.43501,-3.6067240871489
99.436,-3.62665974535048
99.437,-3.646747674793
99.438,-3.66665865294635
99.439,-3.68671864271164
99.44,-3.70660424232483
99.441,-3.72647796757519
99.442,-3.7464969791472
99.443,-3.76634486019611
99.444,-3.7863370962441
99.445,-3.80599591881037
99.446,-3.82596300914884
99.447,-3.84575501084328
99.448,-3.86569602414966
99.44901,-3.88562213629484
99.45,-3.90553358010948
99.451,-3.92527133226395
99.452,-3.94499441608787
99.453,-3.96470539271832
99.454,-3.98440146818757
99.455,-4.00424469262362
99.456,-4.02391329407692
99.457,-4.04356606304646
99.458,-4.06320532783866
99.459,-4.08299127593637
99.46,-4.10260260105133
99.461,-4.12235734984279
99.462,-4.14177868515253
99.46301,-4.16166614741087
99.464,-4.18121833354235
99.465,-4.2005991563201
99.466,-4.22027986496687
99.467,-4.2397896759212
99.468,-4.25928458571434
99.469,-4.27876273170114
99.47,-4.29838337004185
99.471,-4.31767618283629
99.472,-4.33726981282234
99.473,-4.35668649151921
99.474,-4.37608920037746
99.475,-4.39548026770353
99.476,-4.41484991461039
99.47701,-4.43436484783888
99.478,-4.45370795205235
99.479,-4.47303149849176
99.48,-4.49234526604414
99.481,-4.51163854449987
99.482,-4.53092064708471
99.483,-4.55018226057291
99.484,-4.56927670165896
99.485,-4.58866450935602
99.486,-4.60772402584553
99.487,-4.62708109989762
99.488,-4.64611127972603
99.489,-4.66527882963419
99.49,-4.68443287536502
99.491,-4.70356829464436
99.492,-4.72268974408507
99.493,-4.74163983017206
99.494,-4.76073054596782
99.495,-4.77980263531208
99.496,-4.79886028915644
99.497,-4.81774657964706
99.498,-4.83677163720131
99.499,-4.85562719404697
99.5,-4.87461965531111
99.501,-4.89344168454409
99.502,-4.91240434348583
99.503,-4.9311937764287
99.504,-4.94996877387166
99.505,-4.96888160705566
99.506,-4.9876244738698
99.507,-5.00650517642498
99.508,-5.02521730959415
99.509,-5.04391407594085
99.51,-5.0625940784812
99.511,-5.08141657337546
99.512,-5.09991217404604
99.513,-5.11870021000504
99.514,-5.13716647401452
99.515,-5.15592377632856
99.516,-5.1743621006608
99.517,-5.1929340697825
99.518,-5.21149393171072
99.519,-5.23003935813904
99.52,-5.2485684864223
99.521,-5.26708550751209
99.522,-5.28558855876327
99.523,-5.30392676591873
99.524,-5.32240234315395
99.525,-5.34071400761604
99.526,-5.35916583612561
99.527,-5.37745002657175
99.528,-5.39587391540408
99.529,-5.41414087638259
99.53,-5.43239433318377
99.531,-5.45078236609697
99.53201,-5.46901393681765
99.533,-5.48738520592451
99.534,-5.50559302791953
99.535,-5.52379712462425
99.536,-5.54199144244194
99.537,-5.56017877534032
99.538,-5.57836145162582
99.539,-5.59653388336301
99.54,-5.61470491811633
99.541,-5.63287269324064
99.542,-5.65088447183371
99.543,-5.66905178129673
99.544,-5.68721443414688
99.545,-5.70523180067539
99.54601,-5.72354812175035
99.547,-5.74157387018204
99.548,-5.75975188985467
99.549,-5.77779300510883
99.55,-5.79599430784583
99.551,-5.81405824050307
99.552,-5.83228934556246
99.553,-5.85024710744619
99.554,-5.86837437003851
99.555,-5.88667765259743
99.556,-5.90472109615803
99.557,-5.92309655621648
99.558,-5.94136770814657
99.559,-5.95969334244728
99.56001,-5.97807671874762
99.561,-5.99667197093368
99.562,-6.01505814120173
99.563,-6.03368598967791
99.564,-6.05240883305669
99.565,-6.07124995440245
99.566,-6.09008874744177
99.567,-6.10909890383482
99.568,-6.12843642011285
99.569,-6.1478572897613
99.57,-6.16768002510071
99.571,-6.18767272680998
99.572,-6.20818696916103
99.573,-6.2288586050272
99.57401,-6.25051371753216
99.575,-6.27254880964756
99.576,-6.29541696980596
99.577,-6.3193398527801
99.578,-6.34460616856813
99.579,-6.37160567566752
99.58,-6.40075979754329
99.581,-6.43330346792936
99.582,-6.46980898454785
99.583,-6.51243049651384
99.584,-6.56336918473244
99.585,-6.62524066865444
99.586,-6.87731895595789
99.587,-7.24031776189804
99.58801,-7.67574924975634
99.589,-8.06944258511066
99.59,-8.34563840180635
99.591,-8.43339040875435
99.592,-8.50454438477755
99.593,-8.56399349868298
99.594,-8.61581601202488
99.595,-8.66150669753551
99.596,-8.70337709784508
99.597,-8.74187052249908
99.598,-8.77790898084641
99.599,-8.81200097501278
99.6,-8.84473603218794
99.601,-8.87599680572748
99.60201,-8.90637375414371
99.603,-8.93565826117992
99.604,-8.9641660451889
99.605,-8.992207236588
99.606,-9.019467048347
99.607,-9.04640462249517
99.608,-9.07267909497023
99.609,-9.09895449876785
99.61,-9.12445224821568
99.611,-9.14980191737413
99.612,-9.17465053498745
99.613,-9.19961649924517
99.614,-9.22391749918461
99.615,-9.24817565828562
99.616,-9.27240774035454
99.617,-9.29603353142738
99.618,-9.31986700743437
99.619,-9.34312120079994
99.62,-9.36659704893827
99.621,-9.38971806317568
99.622,-9.41269658505917
99.623,-9.43552888929844
99.624,-9.45843383669853
99.625,-9.48102679103613
99.626,-9.50350239872932
99.627,-9.52588208019733
99.628,-9.5483623445034
99.629,-9.57055948674679
99.63,-9.5928767696023
99.631,-9.61512420326471
99.632,-9.63711831718683
99.633,-9.65926609933376
99.634,-9.68118570744991
99.635,-9.70326736569405
99.636,-9.72514878958464
99.637,-9.7472183406353
99.638,-9.76910162717104
99.639,-9.79120843112469
99.64,-9.81334503740072
99.641,-9.83552075922489
99.642,-9.85756143927574
99.643,-9.87985357642174
99.644,-9.90223325788975
99.645,-9.92451328784227
99.646,-9.94710065424442
99.647,-9.96962375938892
99.648,-9.99267213046551
99.649,-10.0155025720596
99.65,-10.038711130619
99.651,-10.0619401782751
99.652,-10.0855976343155
99.653,-10.1093221455812
99.654,-10.1337227970362
99.655,-10.1580768823624
99.656,-10.1828016340733
99.65701,-10.2083198726177
99.658,-10.2339182049036
99.659,-10.2602355182171
99.66,-10.2871311828494
99.661,-10.3146880865097
99.662,-10.3427954018116
99.663,-10.3719420731068
99.664,-10.4018468409777
99.665,-10.4332193732262
99.666,-10.4654636234045
99.667,-10.4993311688304
99.668,-10.5346692726016
99.669,-10.5721186846495
99.67,-10.6118023395538
99.67101,-10.6221549212933
99.672,-10.6229223310947
99.673,-10.6212254613638
99.674,-10.6168761849403
99.675,-10.6094982475042
99.676,-10.5995051562786
99.677,-10.5860708281398
99.678,-10.5699449777603
99.679,-10.5505743995309
99.68,-10.5290059000254
99.681,-10.5051035061479
99.682,-10.480148717761
99.683,-10.4550635442138
99.684,-10.3208590298891
99.68501,-10.1834181696177
99.686,-10.0461915135384
99.687,-9.91282053291798
99.688,-9.78563353419304
99.689,-9.66685451567173
99.69,-9.55729279667139
99.691,-9.46396216750145
99.692,-9.38571617007256
99.693,-9.3158558011055
99.694,-9.25320759415627
99.695,-9.19755455106497
99.696,-9.14823077619076
99.697,-9.10431984812021
99.698,-9.06553026288748
99.69901,-9.03133302927017
99.7,-9.00101754814386
99.701,-8.97434446960688
99.702,-8.95114336162806
99.703,-8.9308675378561
99.704,-8.91358312219381
99.705,-8.89886450022459
99.706,-8.88685137033463
99.707,-8.87745432555676
99.708,-8.87023098766804
99.709,-8.86580720543861
99.71,-8.86354967951775
99.711,-8.86387098580599
99.712,-8.8666882365942
99.71301,-8.87233857065439
99.714,-8.88040661811829
99.715,-8.89137387275696
99.716,-8.90511274337769
99.717,-8.92213173210621
99.718,-8.94219242036343
99.719,-8.96554719656706
99.72,-8.99245589971542
99.721,-9.02278535068035
99.722,-9.05700586736202
99.723,-9.09480080008507
99.724,-9.13643930107355
99.725,-9.18175559490919
99.726,-9.23064164817333
99.72701,-9.2830453068018
99.728,-9.33856517076492
99.729,-9.39682684838772
99.73,-9.45750437676907
99.731,-9.51978098601103
99.732,-9.58314817398787
99.733,-9.64716542512178
99.734,-9.71069000661373
99.735,-9.77322459220886
99.736,-9.83384530991316
99.737,-9.89193376153708
99.738,-9.94648784399033
99.739,-9.99709125608206
99.74,-10.0429467856884
99.741,-10.0837275385857
99.742,-10.1184453815222
99.743,-10.1466653868556
99.744,-10.1678427308798
99.745,-10.1815322414041
99.746,-10.1870419457555
99.747,-10.1837627589703
99.748,-10.1712327450514
99.749,-10.1485811173916
99.75,-10.1156271994114
99.751,-10.0714033469558
99.752,-10.0161405280232
99.753,-9.94946714490652
99.754,-9.8721943795681
99.755,-9.7849378362298
99.756,-9.6894558519125
99.757,-9.58809442818165
99.758,-9.50147025287151
99.759,-9.4819376245141
99.76,-9.46196541190147
99.761,-9.44301020354033
99.762,-9.4257416203618
99.763,-9.41125676035881
99.764,-9.4000892713666
99.765,-9.39303077757359
99.766,-9.39040631055832
99.767,-9.39251203089952
99.76801,-9.39962919801474
99.769,-9.4116386026144
99.77,-9.42872185260057
99.771,-9.45055112242699
99.772,-9.47709195315838
99.773,-9.50778555124998
99.774,-9.54232923686504
99.775,-9.57987178117037
99.776,-9.61993355304003
99.777,-9.66122187674046
99.778,-9.70321893692017
99.779,-9.74459294229746
99.78,-9.78492759168148
99.781,-9.82308480888605
99.78201,-9.85894724726677
99.783,-9.90946590900421
99.784,-9.9768228828907
99.785,-10.0333029404283
99.786,-10.0782578811049
99.787,-10.1114036515355
99.788,-10.1325362920761
99.789,-10.1417955011129
99.79,-10.1393098011613
99.791,-10.1252859458327
99.792,-10.0999213755131
99.793,-10.0637031719089
99.794,-10.0341252982616
99.795,-10.027164593339
99.79601,-10.0172832608223
99.797,-10.00449154526
99.798,-9.98919457197189
99.799,-9.97159630060196
99.8,-9.95259545743465
99.801,-9.93236713111401
99.802,-9.91182401776314
99.803,-9.89131070673466
99.804,-9.87180881202221
99.805,-9.85348783433437
99.806,-9.83709096908569
99.807,-9.82270576059818
99.808,-9.81086678802967
99.809,-9.80164669454098
99.81001,-9.7951153293252
99.811,-9.7913620993495
99.812,-9.79005545377731
99.813,-9.79133881628513
99.814,-9.79478284716606
99.815,-9.80054587125778
99.816,-9.80814453214407
99.817,-9.81742236763239
99.818,-9.8281092941761
99.819,-9.83993336558342
99.82,-9.85249690711498
99.821,-9.86556336283684
99.822,-9.87886916846037
99.823,-9.891870431602
99.82401,-9.90440789610147
99.825,-9.91568714380264
99.826,-9.92539525032043
99.827,-9.93298087269068
99.828,-9.937833994627
99.829,-9.93919186294079
99.83,-9.93648543953896
99.831,-9.92865115404129
99.832,-9.93093941360712
99.833,-9.97082516551018
99.834,-10.0165354087949
99.835,-10.0681558251381
99.836,-10.1248184219003
99.837,-10.1855518296361
99.83801,-10.2486060932279
99.839,-10.3118941187859
99.84,-10.3731546550989
99.841,-10.430321097374
99.842,-10.4812104254961
99.843,-10.5245793238282
99.844,-10.5588473379612
99.845,-10.5831036344171
99.846,-10.5967195704579
99.847,-10.5986688286066
99.848,-10.5886412784457
99.849,-10.5666173622012
99.85,-10.534587316215
99.851,-10.495986789465
99.85201,-10.4572223499417
99.853,-10.4256607592106
99.854,-10.4092601686716
99.855,-10.4142380878329
99.856,-10.444407351315
99.857,-10.4990061372519
99.858,-10.5722900480032
99.859,-10.6532461941242
99.86,-10.7281859964132
99.861,-10.785891674459
99.862,-10.8188353478909
99.863,-10.8237639069557
99.864,-10.8004566282034
99.865,-10.75479388237
99.866,-10.7014589011669
99.867,-10.6626190245152
99.868,-10.6589375063777
99.869,-10.7000051066279
99.87,-10.7781551778316
99.871,-10.8688790351152
99.872,-10.9424041584134
99.873,-10.9780253842473
99.874,-10.9685510396957
99.875,-10.9197087585926
99.876,-10.85782982409
99.877,-10.8242770656943
99.878,-10.8505738899112
99.879,-10.9326140955091
99.88,-11.029957793653
99.881,-11.1062433570623
99.882,-11.0971424728632
99.883,-11.0451066866517
99.884,-10.9777739271522
99.885,-10.9599428251386
99.886,-11.0226050019264
99.887,-11.1272381618619
99.888,-11.2567394971848
99.889,-11.2165026366711
99.89,-11.1290980130434
99.891,-11.0709676519036
99.892,-11.1011518165469
99.89301,-11.2067181617022
99.894,-11.3834552466869
99.895,-11.3338083028793
99.896,-11.2080788239837
99.897,-11.1666955053806
99.898,-11.238512583077
99.899,-11.431235820055
99.9,-11.4995930343866
99.901,-11.3083478063345
99.902,-11.2527655437589
99.903,-11.3245435059071
99.904,-11.5713523700833
99.905,-11.5674892440438
99.906,-11.3583486527205
99.90701,-11.3452989608049
99.908,-11.5271648392081
99.909,-11.7228487506509
99.91,-11.4591307938099
99.911,-11.4055387675762
99.912,-11.5637797862291
99.913,-11.8163740262389
99.914,-11.555821634829
99.915,-11.4741949364543
99.916,-11.7125557735562
99.917,-11.8841417133808
99.918,-11.5569112822413
99.919,-11.5617215633392
99.92,-11.9349518790841
99.92101,-11.8319857865572
99.922,-11.5888817235827
99.923,-11.8648074567318
99.924,-12.0192635804415
99.925,-11.650376021862
99.926,-11.8274558335543
99.927,-12.1192391961813
99.928,-11.7587670683861
99.929,-11.8604572489858
99.93,-12.187272310257
99.931,-11.8220653384924
99.932,-11.9603173807263
99.933,-12.235932983458
99.934,-11.8454871699214
99.93501,-12.123660184443
99.936,-12.2289219871163
99.937,-11.8880858644843
99.938,-12.3087884858251
99.939,-12.1391639113426
99.94,-12.031034566462
99.941,-12.4185997992754
99.942,-12.032569386065
99.943,-12.2766625136137
99.944,-12.3699204996228
99.945,-12.0515655726194
99.946,-12.490026652813
99.947,-12.2171575203538
99.948,-12.2437831014395
99.94901,-12.5372717157006
99.95,-12.1308770030737
99.951,-12.482644058764
99.952,-12.4404588714242
99.953,-12.194599956274
99.954,-12.6291988417506
99.955,-12.3277977108955
99.956,-12.335610575974
99.957,-12.6761859282851
99.958,-12.2796287760139
99.959,-12.4499872326851
99.96,-12.6963192597032
99.961,-12.2902989387512
99.962,-12.4845132231712
99.96301,-12.7445701509714
99.964,-12.3571418225765
99.965,-12.41509988904
99.966,-12.7890333533287
99.967,-12.551411986351
99.968,-12.3020950704813
99.969,-12.6376152038574
99.97,-12.8312865272164
99.971,-12.5179346650839
99.972,-12.3123889788985
99.973,-12.5790489837527
99.974,-12.8762694075704
99.975,-12.8043973818421
99.976,-12.48998939991
99.97701,-12.301136739552
99.978,-12.4018164351583
99.979,-12.6721588894725
99.98,-12.9130035638809
99.981,-13.0186593160033
99.982,-12.9932826384902
99.983,-12.8881884738803
99.984,-12.7598773688078
99.985,-12.6549853011966
99.986,-12.6103777438402
99.987,-12.6597080379725
99.988,-12.8352455794811
99.989,-13.1496004760265
99.99,-13.5502750054002
99.991,-13.8919791206717
99.992,-13.9878038316965
99.993,-13.7065080925822
99.994,-13.1338573992252
99.995,-12.8816831856966
99.996,-13.377602212131
99.997,-13.8735650107265
99.998,-13.4063474833965
99.999,-12.9772759974003
100,-13.6954104527831
