Structure Acceleration, RAO-Based Response
Line A: Structure Acceleration, RAO-Based Response - Global Z (Trimaran - Center of Gravity relative to Origin of Fixed Reference Axes (FRA)) [mm/s²]

*Time (s),Line A (mm/s²)
100,-105.142258107662
100.001,-104.984976351261
100.002,-104.825124144554
100.003,-104.666389524937
100.004,-104.506924748421
100.005,-104.344874620438
100.006,-104.183971881866
100.007,-104.020461440086
100.008,-103.856220841408
100.009,-103.693142533302
100.01,-103.527449071407
100.011,-103.362940251827
100.012,-103.197708725929
100.013,-103.029862046242
100.014,-102.863192558289
100.015,-102.693893015385
100.016,-102.52583026886
100.017,-102.355070412159
100.018,-102.18557715416
100.019,-102.015376091003
100.02,-101.84246301651
100.021,-101.668864488602
100.022,-101.496554911137
100.023,-101.321518421173
100.024,-101.147793233395
100.025,-100.971341133118
100.026,-100.796215236187
100.027,-100.62038898468
100.028,-100.441835820675
100.029,-100.264623761177
100.03,-100.084640085697
100.031,-99.9060347676277
100.032,-99.7246652841568
100.033,-99.5446741580963
100.034,-99.3639975786209
100.035,-99.1784110665321
100.036,-98.9963561296463
100.037,-98.8136231899261
100.038,-98.6280515789986
100.039,-98.4418019652367
100.04,-98.2548594474792
100.041,-98.0693697929382
100.042,-97.8832244873047
100.043,-97.6942181587219
100.044,-97.5067168474197
100.045,-97.3163172602654
100.046,-97.1274897456169
100.047,-96.9357267022133
100.048,-96.7455208301544
100.049,-96.5502113103867
100.05,-96.3564217090607
100.051,-96.1641892790794
100.052,-95.9713011980057
100.053,-95.7755073904991
100.054,-95.5812931060791
100.055,-95.3841507434845
100.056,-95.1863303780556
100.057,-94.9878171086311
100.058,-94.7909653186798
100.059,-94.5934355258942
100.06,-94.3929404020309
100.061,-94.1917896270752
100.062,-93.9899832010269
100.063,-93.7874987721443
100.064,-93.5867130756378
100.065,-93.382902443409
100.066,-93.17846596241
100.067,-92.9757207632065
100.068,-92.7699431777
100.069,-92.5635322928429
100.07,-92.3564881086349
100.071,-92.1511352062225
100.072,-91.9427797198296
100.073,-91.7337611317635
100.074,-91.5265083312988
100.075,-91.3162231445313
100.076,-91.1052897572517
100.077,-90.8936858177185
100.078,-90.6790047883987
100.079,-90.4686003923416
100.08,-90.2550742030144
100.081,-90.0409072637558
100.082,-89.8286104202271
100.083,-89.6107107400894
100.084,-89.397132396698
100.085,-89.1779735684395
100.086,-88.9631286263466
100.087,-88.7426733970642
100.088,-88.5241106152534
100.089,-88.3074253797531
100.09,-88.0850628018379
100.091,-87.8646001219749
100.092,-87.6435041427612
100.093,-87.419256567955
100.094,-87.1969163417816
100.095,-86.9739651679993
100.096,-86.750403046608
100.097,-86.5236148238182
100.098,-86.2988084554672
100.099,-86.0733762383461
100.1,-85.8447402715683
100.101,-85.6180787086487
100.102,-85.38818359375
100.103,-85.1603001356125
100.104,-84.9317982792854
100.105,-84.6974179148674
100.106,-84.4677090644836
100.107,-84.2373669147491
100.108,-84.0037763118744
100.109,-83.7722271680832
100.11,-83.5347175598145
100.111,-83.301953971386
100.112,-83.0659195780754
100.113,-82.8292667865753
100.114,-82.5947001576424
100.115,-82.3541432619095
100.116,-82.1183621883392
100.117,-81.8765833973885
100.118,-81.6395953297615
100.119,-81.3965350389481
100.12,-81.1556503176689
100.121,-80.9141397476196
100.122,-80.672025680542
100.123,-80.4265663027763
100.124,-80.1860243082047
100.125,-79.9393355846405
100.126,-79.6947926282883
100.127,-79.4469118118286
100.128,-79.2011842131615
100.129,-78.9548754692078
100.13,-78.7051543593407
100.131,-78.4576311707497
100.132,-78.2067105174065
100.133,-77.9523402452469
100.134,-77.7030438184738
100.135,-77.4502381682396
100.136,-77.1997272968292
100.137,-76.9429206848145
100.138,-76.6911655664444
100.139,-76.4359831809998
100.14,-76.180174946785
100.141,-75.9237483143806
100.142,-75.6666883826256
100.143,-75.4090249538422
100.144,-75.150728225708
100.145,-74.8918354511261
100.146,-74.6293887495995
100.147,-74.3692293763161
100.148,-74.1054713726044
100.149,-73.8439783453941
100.15,-73.5789239406586
100.151,-73.3160823583603
100.152,-73.0496644973755
100.153,-72.7854445576668
100.154,-72.5205168128014
100.155,-72.2519010305405
100.156,-71.9825029373169
100.157,-71.71231508255
100.158,-71.4442580938339
100.159,-71.1693912744522
100.16,-70.896603167057
100.161,-70.6227421760559
100.162,-70.3508481383324
100.163,-70.0717717409134
100.164,-69.7944760322571
100.165,-69.5157274603844
100.166,-69.2353844642639
100.167,-68.9501538872719
100.168,-68.6658173799515
100.169,-68.3789402246475
100.17,-68.0859833955765
100.171,-67.7923336625099
100.172,-67.4909949302673
100.173,-67.1867430210114
100.174,-66.8717473745346
100.175,-66.5463805198669
100.176,-66.2099421024323
100.177,-65.8504292368889
100.178,-65.4620155692101
100.179,-65.030112862587
100.18,-64.5304769277573
100.181,-63.9238506555557
100.182,-63.1251484155655
100.183,-62.0053857564926
100.184,-60.2538362145424
100.185,-57.3270469903946
100.186,-53.7023320794106
100.187,-49.6852472424507
100.188,-46.5391092002392
100.189,-44.5946976542473
100.19,-43.4796363115311
100.191,-42.7517965435982
100.192,-42.2176942229271
100.193,-41.8000034987926
100.194,-41.4518266916275
100.195,-41.1504246294498
100.196,-40.882796049118
100.197,-40.635883808136
100.198,-40.4073148965836
100.199,-40.1892066001892
100.2,-39.9823933839798
100.201,-39.782926440239
100.202,-39.5874120295048
100.203,-39.3965691328049
100.204,-39.2113551497459
100.205,-39.027389138937
100.206,-38.8497039675713
100.207,-38.6704206466675
100.208,-38.4947843849659
100.209,-38.3224710822105
100.21,-38.1477251648903
100.211,-37.9758737981319
100.212,-37.8049202263355
100.213,-37.6347154378891
100.214,-37.4651327729225
100.215,-37.2979342937469
100.216,-37.1274091303349
100.217,-36.9609892368317
100.218,-36.7929562926292
100.219,-36.6251468658447
100.22,-36.4574603736401
100.221,-36.2917594611645
100.222,-36.1242219805717
100.223,-35.9585881233215
100.224,-35.7929207384586
100.225,-35.625234246254
100.226,-35.4593545198441
100.227,-35.2914296090603
100.228,-35.1251922547817
100.229,-34.956831485033
100.23,-34.7882024943829
100.231,-34.6211865544319
100.232,-34.4519019126892
100.233,-34.2841595411301
100.234,-34.1159999370575
100.235,-33.9454375207424
100.236,-33.7782725691795
100.237,-33.6066745221615
100.238,-33.4364548325539
100.239,-33.2636944949627
100.24,-33.0922417342663
100.241,-32.9201370477676
100.242,-32.745361328125
100.243,-32.5738117098808
100.244,-32.3975533246994
100.245,-32.2204828262329
100.246,-32.0445746183395
100.247,-31.8658128380775
100.248,-31.6881574690342
100.249,-31.5115563571453
100.25,-31.3300341367722
100.251,-31.1495494097471
100.252,-30.9660919010639
100.253,-30.7836122810841
100.254,-30.5981785058975
100.255,-30.413743108511
100.256,-30.2303470671177
100.257,-30.0420634448528
100.258,-29.8529230058193
100.259,-29.6650547534227
100.26,-29.474563896656
100.261,-29.2856693267822
100.262,-29.0966089814901
100.263,-28.9077255874872
100.264,-28.7194661796093
100.265,-28.5303667187691
100.266,-28.345188125968
100.267,-28.1608682125807
100.268,-27.985867112875
100.269,-27.8146136552095
100.27,-27.650248259306
100.271,-27.4908952414989
100.272,-27.3412112146616
100.273,-27.2087119519711
100.274,-27.0915701985359
100.275,-26.9948225468397
100.276,-26.9305091351271
100.277,-26.8965177237988
100.278,-26.9073713570833
100.279,-26.9616972655058
100.28,-27.0645059645176
100.281,-27.1139219403267
100.282,-27.1379798650742
100.283,-27.2036530077457
100.284,-27.2989366203547
100.285,-27.4165309965611
100.286,-27.5483410805464
100.287,-27.6790764182806
100.288,-27.8078522533178
100.289,-27.9225576668978
100.29,-27.9914848506451
100.291,-27.920413762331
100.292,-27.836985886097
100.293,-27.740016579628
100.294,-27.6290103793144
100.295,-27.503963559866
100.296,-27.3681282997131
100.297,-27.2160619497299
100.298,-27.0573608577251
100.299,-26.8804952502251
100.3,-26.6951583325863
100.301,-26.5020094811916
100.302,-26.2984707951546
100.303,-26.0850638151169
100.304,-25.8652791380882
100.305,-25.6332904100418
100.306,-25.3956541419029
100.307,-25.1495353877544
100.308,-24.8982794582844
100.309,-24.6358029544353
100.31,-24.368554353714
100.311,-24.0967683494091
100.312,-23.8141790032387
100.313,-23.5242322087288
100.314,-23.2302583754063
100.315,-22.9295380413532
100.316,-22.628728300333
100.317,-22.3161242902279
100.318,-22.0050849020481
100.319,-21.6906145215034
100.32,-21.3743075728416
100.321,-21.0580304265022
100.322,-20.7468941807747
100.323,-20.440012216568
100.324,-20.1395340263844
100.325,-19.8531560599804
100.326,-19.5734947919846
100.327,-19.3014070391655
100.328,-19.0196596086025
100.329,-18.6992883682251
100.33,-18.4004679322243
100.331,-18.1199684739113
100.332,-17.8569853305817
100.333,-17.6133215427399
100.334,-17.3824429512024
100.335,-17.1718895435333
100.336,-16.975786536932
100.337,-16.7915001511574
100.338,-16.6282206773758
100.339,-16.4791084825993
100.34,-16.3519568741322
100.341,-16.2437446415424
100.342,-16.0713195800781
100.343,-15.8864222466946
100.344,-15.7095976173878
100.345,-15.5404582619667
100.346,-15.3796188533306
100.347,-15.2164250612259
100.348,-15.0512345135212
100.349,-14.8752257227898
100.35,-14.6875269711018
100.351,-14.4832395017147
100.352,-14.2599046230316
100.353,-14.0306539833546
100.354,-13.8145685195923
100.355,-13.6431492865086
100.356,-13.438668102026
100.357,-13.2033340632915
100.358,-12.9450522363186
100.359,-12.6533843576908
100.36,-12.3880431056023
100.361,-12.1703818440437
100.362,-11.9534134864807
100.363,-11.7363147437572
100.364,-11.5194171667099
100.365,-11.3072171807289
100.366,-11.0979378223419
100.367,-10.8927078545094
100.368,-10.6914713978767
100.369,-10.4930140078068
100.37,-10.2921612560749
100.371,-10.0958459079266
100.372,-9.88932326436043
100.373,-9.68018174171448
100.374,-9.4609372317791
100.375,-9.23708453774452
100.376,-9.00496914982796
100.377,-8.75741988420486
100.378,-8.50255042314529
100.379,-8.23174044489861
100.38,-7.94558227062225
100.381,-7.64542073011398
100.382,-7.31732323765755
100.383,-7.22997635602951
100.384,-7.10407271981239
100.385,-6.93833827972412
100.386,-6.75208494067192
100.387,-6.53743371367455
100.388,-6.31098821759224
100.389,-6.06706738471985
100.39,-5.8199018239975
100.391,-5.56819140911102
100.392,-5.30583783984184
100.393,-5.04369661211967
100.394,-4.77417558431625
100.395,-4.50365990400314
100.396,-4.21717762947083
100.397,-3.92832234501839
100.398,-3.63332778215408
100.399,-3.32889705896378
100.4,-3.01581248641014
100.401,-2.69882380962372
100.402,-2.37265229225159
100.403,-2.0497627556324
100.404,-1.82453542947769
100.405,-1.61632150411606
100.406,-1.39699131250381
100.407,-1.16162374615669
100.408,-.911634415388107
100.409,-.644613057374954
100.41,-.357501208782196
100.411,-4.98220324516296E-02
100.412,.293545424938202
100.413,.665508210659027
100.414,1.08467042446136
100.415,1.41287222504616
100.416,1.65177136659622
100.417,1.90947577357292
100.418,2.20779702067375
100.419,2.59072706103325
100.42,3.07904928922653
100.421,3.7047304213047
100.422,4.47005778551102
100.423,4.68374416232109
100.424,4.72414493560791
100.425,4.87906858325005
100.426,5.10896369814873
100.427,5.39541244506836
100.428,5.70523738861084
100.429,6.03147223591805
100.43,6.3624382019043
100.431,6.71083852648735
100.432,7.11101666092873
100.433,7.61744752526283
100.434,8.32347571849823
100.435,8.91575589776039
100.436,8.73330235481262
100.437,8.77421349287033
100.438,8.98474454879761
100.439,9.29481163620949
100.44,9.71969589591026
100.441,10.3446505963802
100.442,11.3180913031101
100.443,11.1862421035767
100.444,11.1381113529205
100.445,11.3334432244301
100.446,11.6732306778431
100.447,12.1973976492882
100.448,13.0740888416767
100.449,13.4284719824791
100.45,13.3225508034229
100.451,13.6323347687721
100.452,14.3925696611404
100.453,14.7216059267521
100.454,14.4523903727531
100.455,14.6192163228989
100.456,15.0955133140087
100.457,16.0645097494125
100.458,16.4041593670845
100.459,16.4985060691833
100.46,17.3763036727905
100.461,16.9890522956848
100.462,16.8984569609165
100.463,17.3140540719032
100.464,18.3710940182209
100.465,18.7099650502205
100.466,19.174475222826
100.467,19.0424025058746
100.468,18.7890566885471
100.469,19.2504823207855
100.47,20.5152817070484
100.471,20.6999480724335
100.472,20.9240801632404
100.473,20.362563431263
100.474,20.7242928445339
100.475,22.0305137336254
100.476,22.4278420209885
100.477,22.007592022419
100.478,21.7520240694284
100.479,22.621288895607
100.48,23.6975960433483
100.481,23.3948212116957
100.482,22.8924248367548
100.483,23.6991960555315
100.484,24.9479599297047
100.485,24.2601186037064
100.486,23.9762812852859
100.487,25.2043977379799
100.488,25.7928743958473
100.489,24.8367208987474
100.49,25.385819375515
100.491,26.7351977527142
100.492,25.8026607334614
100.493,25.9117223322392
100.494,27.3988712579012
100.495,26.5974141657352
100.496,26.6063958406448
100.497,28.0674267560244
100.498,27.1327644586563
100.499,27.4550504982471
100.5,28.6186952143908
100.501,27.552355080843
100.502,28.5914968699217
100.503,28.6698434501886
100.504,28.209624812007
100.505,29.6168550848961
100.506,28.550460934639
100.507,29.5734647661448
100.508,29.3347705155611
100.509,29.3461363762617
100.51,30.1506128162146
100.511,29.3970815837383
100.512,30.6696016341448
100.513,29.6330619603395
100.514,30.952662229538
100.515,29.9180056899786
100.516,31.1524923890829
100.517,30.1777683198452
100.518,31.364381313324
100.519,30.3939022123814
100.52,31.5580181777477
100.521,30.5991098284721
100.522,31.6407009959221
100.523,30.8793429285288
100.524,31.4776040613651
100.525,31.3513055443764
100.526,31.1547238379717
100.527,31.8994522094727
100.528,31.0560762882233
100.529,31.8500250577927
100.53,31.4940400421619
100.531,31.2544964253902
100.532,32.0268757641315
100.533,31.2907099723816
100.534,31.3969925045967
100.535,31.9627076387405
100.536,31.226459890604
100.537,31.3281342387199
100.538,31.8751484155655
100.539,31.2251932919025
100.54,31.1113987118006
100.541,31.7053124308586
100.542,31.3027650117874
100.543,30.8859907090664
100.544,31.3660018146038
100.545,31.425915658474
100.546,30.7911150157452
100.547,30.9355743229389
100.548,31.4042568206787
100.549,30.8613236993551
100.55,30.6256134063005
100.551,31.1821177601814
100.552,31.0097113251686
100.553,30.4928533732891
100.554,30.9328380972147
100.555,31.1144571751356
100.556,30.4816402494907
100.557,30.8420453220606
100.558,31.1698988080025
100.559,30.5208899080753
100.56,31.0060679912567
100.561,31.1704557389021
100.562,30.6432172656059
100.563,31.4776971936226
100.564,31.0059078037739
100.565,31.2166847288609
100.566,31.6658914089203
100.567,31.1976261436939
100.568,32.178059220314
100.569,31.4537882804871
100.57,32.6097905635834
100.571,31.8246223032475
100.572,33.1123471260071
100.573,32.3017202317715
100.574,33.5089042782784
100.575,33.1762433052063
100.576,33.4503203630447
100.577,34.6835479140282
100.578,33.9183062314987
100.579,34.6642732620239
100.58,36.0431298613548
100.581,35.5558954179287
100.582,35.4686975479126
100.583,36.5584269165993
100.584,38.1483286619186
100.585,38.935448974371
100.586,38.9408729970455
100.587,38.8546735048294
100.588,39.0490293502808
100.589,39.5635925233364
100.59,40.3502844274044
100.591,41.3197912275791
100.592,42.1920567750931
100.593,42.5024032592773
100.594,42.2731712460518
100.595,42.5032339990139
100.596,43.898481875658
100.597,45.2452711760998
100.598,45.0345389544964
100.599,46.4877709746361
100.6,47.4647060036659
