Structure Acceleration, RAO-Based Response
Line A: Structure Acceleration, RAO-Based Response - Global Z (Trimaran - Center of Gravity relative to Origin of Fixed Reference Axes (FRA)) [mm/s²]

*Time (s),Line A (mm/s²)
99.4,-49.7173629701138
99.401,-50.0471368432045
99.402,-50.3800921142101
99.403,-50.7090762257576
99.404,-51.0412156581879
99.405,-51.3729564845562
99.406,-51.7007187008858
99.40701,-52.0351864397526
99.408,-52.3621290922165
99.409,-52.6921972632408
99.41,-53.0183017253876
99.411,-53.3475205302238
99.412,-53.6763183772564
99.413,-54.004680365324
99.414,-54.3325953185558
99.415,-54.6565689146519
99.416,-54.9836233258247
99.417,-55.3102307021618
99.418,-55.6328967213631
99.419,-55.9586063027382
99.42,-56.2803819775581
99.42101,-56.6086992621422
99.422,-56.9295808672905
99.423,-57.253472507
99.424,-57.5734451413155
99.425,-57.8964240849018
99.426,-58.2189410924911
99.427,-58.5375390946865
99.428,-58.8591136038303
99.429,-59.1767691075802
99.43,-59.4974011182785
99.431,-59.8209984600544
99.432,-60.1372271776199
99.433,-60.4564100503922
99.434,-60.7716925442219
99.43501,-61.0933378338814
99.436,-61.407633125782
99.437,-61.7248527705669
99.438,-62.0415844023228
99.439,-62.3578131198883
99.44,-62.6735389232635
99.441,-62.9853680729866
99.442,-63.3000731468201
99.443,-63.6142864823341
99.444,-63.924603164196
99.445,-64.2411559820175
99.446,-64.5504668354988
99.447,-64.8625940084457
99.448,-65.1742219924927
99.44901,-65.4852986335754
99.45,-65.7958760857582
99.451,-66.1059021949768
99.452,-66.4154067635536
99.453,-66.7210444808006
99.454,-67.0327842235565
99.455,-67.3373490571976
99.456,-67.6446929574013
99.457,-67.951500415802
99.458,-68.2577416300774
99.459,-68.5634464025497
99.46,-68.8653066754341
99.461,-69.1731795668602
99.462,-69.4772005081177
99.46301,-69.7839260101318
99.464,-70.086807012558
99.465,-70.3858882188797
99.466,-70.6909000873566
99.467,-70.9888488054276
99.468,-71.2926834821701
99.469,-71.5927183628082
99.47,-71.8889608979225
99.471,-72.1910372376442
99.472,-72.486124932766
99.473,-72.7870315313339
99.474,-73.0841383337975
99.475,-73.3806490898132
99.476,-73.6797451972961
99.47701,-73.975071310997
99.478,-74.272945523262
99.479,-74.5638906955719
99.48,-74.8605355620384
99.481,-75.1534327864647
99.482,-75.4456967115402
99.483,-75.7404863834381
99.484,-76.0315358638763
99.485,-76.3219445943832
99.486,-76.6117349267006
99.487,-76.9040137529373
99.488,-77.1956443786621
99.489,-77.4835199117661
99.49,-77.7707770466805
99.491,-78.0604630708694
99.492,-78.3495008945465
99.493,-78.6348357796669
99.494,-78.9225548505783
99.495,-79.2065560817719
99.496,-79.492948949337
99.497,-79.7786712646484
99.498,-80.060675740242
99.499,-80.3480818867683
99.5,-80.6287527084351
99.501,-80.911748111248
99.502,-81.1940580606461
99.503,-81.475667655468
99.504,-81.7565768957138
99.505,-82.0367783308029
99.506,-82.3192596435547
99.507,-82.5950726866722
99.508,-82.876093685627
99.509,-83.1534564495087
99.51,-83.4300741553307
99.511,-83.705946803093
99.512,-83.9810818433762
99.513,-84.2584222555161
99.514,-84.5349878072739
99.515,-84.8049819469452
99.516,-85.0800126791
99.517,-85.3513851761818
99.518,-85.6248810887337
99.519,-85.8975872397423
99.52,-86.1694812774658
99.521,-86.4377096295357
99.522,-86.7108702659607
99.523,-86.9803354144096
99.524,-87.2461423277855
99.525,-87.5139385461807
99.526,-87.7809226512909
99.527,-88.0470424890518
99.528,-88.3123129606247
99.529,-88.5766968131065
99.53,-88.8402014970779
99.531,-89.1028195619583
99.53201,-89.3700867891312
99.533,-89.6281152963638
99.534,-89.890755712986
99.535,-90.1524424552917
99.536,-90.4104113578796
99.537,-90.670108795166
99.538,-90.9261107444763
99.539,-91.1838263273239
99.54,-91.4405286312103
99.541,-91.6934460401535
99.542,-91.9479727745056
99.543,-92.1987444162369
99.544,-92.4537628889084
99.545,-92.7049368619919
99.54601,-92.9549187421799
99.547,-93.2037010788918
99.548,-93.4512317180634
99.549,-93.700110912323
99.55,-93.942366540432
99.551,-94.1885560750961
99.552,-94.4306626915932
99.553,-94.6739017963409
99.554,-94.9155539274216
99.555,-95.150426030159
99.556,-95.3887850046158
99.557,-95.622792840004
99.558,-95.8574712276459
99.559,-96.092700958252
99.56001,-96.3232517242432
99.561,-96.5515375137329
99.562,-96.7748612165451
99.563,-97.0006287097931
99.564,-97.2184836864471
99.565,-97.4383056163788
99.566,-97.6521670818329
99.567,-97.8623032569885
99.568,-98.0682820081711
99.569,-98.2695743441582
99.57,-98.468005657196
99.571,-98.6604019999504
99.572,-98.8433957099915
99.573,-99.0206301212311
99.57401,-99.1883128881454
99.575,-99.3444919586182
99.576,-99.4843915104866
99.577,-99.6095016598701
99.578,-99.710687994957
99.579,-99.7868105769157
99.58,-99.8293161392212
99.581,-99.8186767101288
99.582,-99.7451990842819
99.583,-99.5692163705826
99.584,-99.2489606142044
99.585,-98.6872762441635
99.586,-97.7172926068306
99.587,-96.0201621055603
99.58801,-89.5137190818787
99.589,-80.5042684078217
99.59,-71.0588246583939
99.591,-64.5689144730568
99.592,-62.0748251676559
99.593,-61.0034242272377
99.594,-60.3274405002594
99.595,-59.8868690431118
99.596,-59.5944076776505
99.597,-59.3989454209805
99.598,-59.2744201421738
99.599,-59.1978393495083
99.6,-59.1566450893879
99.601,-59.1447949409485
99.60201,-59.1548681259155
99.603,-59.182420372963
99.604,-59.2228621244431
99.605,-59.2762231826782
99.606,-59.3392923474312
99.607,-59.4092421233654
99.608,-59.4873800873756
99.609,-59.5702528953552
99.61,-59.6582517027855
99.611,-59.7519502043724
99.612,-59.8483234643936
99.613,-59.9481165409088
99.614,-60.0509531795979
99.615,-60.1564571261406
99.616,-60.2655336260796
99.617,-60.3755153715611
99.618,-60.4873523116112
99.619,-60.6008619070053
99.62,-60.7158318161964
99.621,-60.832105576992
99.622,-60.9495267271996
99.623,-61.0667616128922
99.624,-61.1860230565071
99.625,-61.3060146570206
99.626,-61.4254772663116
99.627,-61.5465864539146
99.628,-61.6669245064259
99.629,-61.788696795702
99.63,-61.9106143712997
99.631,-62.0325990021229
99.632,-62.1545277535915
99.633,-62.275193631649
99.634,-62.3955875635147
99.635,-62.5155940651894
99.636,-62.6361668109894
99.637,-62.7560317516327
99.638,-62.8729164600372
99.639,-62.9910081624985
99.64,-63.1069019436836
99.641,-63.2215589284897
99.642,-63.3358955383301
99.643,-63.4476467967033
99.644,-63.5577365756035
99.645,-63.6670365929604
99.646,-63.7743398547173
99.647,-63.8773813843727
99.648,-63.9801621437073
99.649,-64.0793144702911
99.65,-64.1756951808929
99.651,-64.2700716853142
99.652,-64.3601268529892
99.653,-64.4466578960419
99.654,-64.5292922854424
99.655,-64.6077394485474
99.656,-64.6825879812241
99.65701,-64.752459526062
99.658,-64.8159235715866
99.659,-64.8734718561172
99.66,-64.9245455861092
99.661,-64.9685263633728
99.662,-65.0056824088097
99.663,-65.0332942605019
99.664,-65.0514885783195
99.665,-65.0591775774956
99.666,-65.0552585721016
99.667,-65.0392696261406
99.668,-65.0077909231186
99.669,-64.9600178003311
99.67,-64.8937895894051
99.67101,-64.8075938224792
99.672,-64.9051368236542
99.673,-65.2135163545609
99.674,-65.5560418963432
99.675,-65.9392774105072
99.676,-66.3713961839676
99.677,-66.8633878231049
99.678,-67.4252361059189
99.679,-68.0758655071259
99.68,-68.8304975628853
99.681,-69.7135552763939
99.682,-70.7489550113678
99.683,-71.957178413868
99.684,-73.3572691679001
99.68501,-76.1141031980515
99.686,-79.4780030846596
99.687,-83.0467641353607
99.688,-86.6883769631386
99.689,-90.2571454644203
99.69,-93.5979261994362
99.691,-96.3484048843384
99.692,-98.8380312919617
99.693,-101.067565381527
99.694,-103.049606084824
99.695,-104.810021817684
99.696,-106.377467513084
99.697,-107.775390148163
99.698,-109.03088748455
99.69901,-110.163725912571
99.7,-111.191317439079
99.701,-112.127378582954
99.702,-112.98605799675
99.703,-113.739684224129
99.704,-114.165723323822
99.705,-114.56435918808
99.706,-114.934727549553
99.707,-115.282312035561
99.708,-115.608215332031
99.709,-115.913048386574
99.71,-116.200141608715
99.711,-116.46856367588
99.712,-116.720095276833
99.71301,-116.956233978271
99.714,-117.175444960594
99.715,-117.378041148186
99.716,-117.565959692001
99.717,-117.738306522369
99.718,-117.893949151039
99.719,-118.034526705742
99.72,-118.157044053078
99.721,-118.263840675354
99.722,-118.354454636574
99.723,-118.425764143467
99.724,-118.47996711731
99.725,-118.513852357864
99.726,-118.530541658401
99.72701,-118.52689832449
99.728,-118.503481149673
99.729,-118.460886180401
99.73,-118.395805358887
99.731,-118.312373757362
99.732,-118.208631873131
99.733,-118.08605492115
99.734,-117.945685982704
99.735,-117.788285017014
99.736,-117.617167532444
99.737,-117.432586848736
99.738,-117.239490151405
99.739,-117.040328681469
99.74,-116.838246583939
99.741,-116.638481616974
99.742,-116.243079304695
99.743,-115.860387682915
99.744,-115.507818758488
99.745,-115.194246172905
99.746,-114.927068352699
99.747,-114.715561270714
99.748,-114.566825330257
99.749,-114.487841725349
99.75,-114.48660492897
99.751,-114.569827914238
99.752,-114.745661616325
99.753,-115.019865334034
99.754,-115.39963632822
99.755,-115.891635417938
99.756,-116.499692201614
99.757,-117.229074239731
99.758,-117.803767323494
99.759,-118.354625999928
99.76,-118.96538734436
99.761,-119.628749787807
99.762,-120.33611536026
99.763,-121.073976159096
99.764,-121.828258037567
99.765,-122.58169054985
99.766,-123.317807912827
99.767,-124.021142721176
99.76801,-124.678544700146
99.769,-125.280857086182
99.77,-125.820904970169
99.771,-126.297757029533
99.772,-126.711457967758
99.773,-126.844227313995
99.774,-126.586675643921
99.775,-126.356825232506
99.776,-126.160845160484
99.777,-126.00065767765
99.778,-125.878512859344
99.779,-125.795096158981
99.78,-125.750213861465
99.781,-125.742986798286
99.78201,-125.771820545197
99.783,-125.83464384079
99.784,-125.928580760956
99.785,-126.05132162571
99.786,-126.198634505272
99.787,-126.367941498756
99.788,-126.554563641548
99.789,-126.754641532898
99.79,-126.964017748833
99.791,-127.178326249123
99.792,-127.394199371338
99.793,-127.267584204674
99.794,-127.068072557449
99.795,-126.858979463577
99.79601,-126.643031835556
99.797,-126.423180103302
99.798,-126.202404499054
99.799,-125.984370708466
99.8,-125.771552324295
99.801,-125.566720962524
99.802,-125.372871756554
99.803,-125.19171833992
99.804,-125.025302171707
99.805,-124.874904751778
99.806,-124.741569161415
99.807,-124.626226723194
99.808,-124.529212713242
99.809,-124.450832605362
99.81001,-124.391011893749
99.811,-124.349690973759
99.812,-124.326519668102
99.813,-124.321259558201
99.814,-124.333500862122
99.815,-124.36293810606
99.816,-124.409042298794
99.817,-124.471604824066
99.818,-124.550200998783
99.819,-124.644502997398
99.82,-124.754153192043
99.821,-124.878711998463
99.822,-125.017732381821
99.823,-125.170528888702
99.82401,-125.336349010468
99.825,-125.514090061188
99.826,-125.702396035194
99.827,-125.899717211723
99.828,-126.103594899178
99.829,-126.311913132668
99.83,-126.520961523056
99.831,-126.727879047394
99.832,-126.929104328156
99.833,-127.120226621628
99.834,-127.297848463058
99.835,-127.344191074371
99.836,-127.15271115303
99.837,-126.971960067749
99.83801,-126.809388399124
99.839,-126.672491431236
99.84,-126.568302512169
99.841,-126.502797007561
99.842,-126.478642225266
99.843,-126.496508717537
99.844,-126.551568508148
99.845,-126.635521650314
99.846,-126.735925674438
99.847,-126.836284995079
99.848,-126.920133829117
99.849,-126.970171928406
99.85,-126.971393823624
99.851,-126.912534236908
99.85201,-126.782134175301
99.853,-126.57755613327
99.854,-126.299425959587
99.855,-125.964418053627
99.856,-125.603199005127
99.857,-125.263541936874
99.858,-124.998278915882
99.859,-124.852254986763
99.86,-124.846607446671
99.861,-124.963730573654
99.862,-125.152990221977
99.863,-125.339850783348
99.864,-125.448063015938
99.865,-125.422269105911
99.866,-125.230401754379
99.867,-124.882355332375
99.868,-124.432846903801
99.869,-123.994946479797
99.87,-123.70216101408
99.871,-123.647309839725
99.872,-123.816549777985
99.873,-124.086640775204
99.874,-124.285034835339
99.875,-124.269396066666
99.876,-123.98499250412
99.877,-123.491227626801
99.878,-122.974157333374
99.879,-122.682221233845
99.88,-122.745543718338
99.881,-123.057052493095
99.882,-123.329751193523
99.883,-123.307228088379
99.884,-122.911140322685
99.885,-122.312001883984
99.886,-121.884018182755
99.887,-121.909737586975
99.888,-122.277989983559
99.889,-122.553005814552
99.89,-122.386790812016
99.891,-121.801048517227
99.892,-121.22792750597
99.89301,-121.166408061981
99.894,-121.573008596897
99.895,-121.859215199947
99.896,-121.573314070702
99.897,-120.880007743835
99.898,-120.484091341496
99.899,-120.777599513531
99.9,-121.213898062706
99.901,-121.048159897327
99.902,-120.327562093735
99.903,-119.924634695053
99.904,-120.30965834856
99.905,-120.700910687447
99.906,-120.297938585281
99.90701,-119.549885392189
99.908,-119.563974440098
99.909,-120.134443044662
99.91,-120.031118392944
99.911,-119.230158627033
99.912,-119.063176214695
99.913,-119.67197060585
99.914,-119.608610868454
99.915,-118.77803504467
99.916,-118.744194507599
99.917,-119.373813271523
99.918,-119.027063250542
99.919,-118.265680968761
99.92,-118.685528635979
99.92101,-119.036391377449
99.922,-118.218973278999
99.923,-118.077248334885
99.924,-118.758596479893
99.925,-118.220612406731
99.926,-117.692872881889
99.927,-118.419945240021
99.928,-118.111088871956
99.929,-117.434449493885
99.93,-118.163116276264
99.931,-117.883808910847
99.932,-117.240183055401
99.933,-118.012435734272
99.934,-117.534831166267
99.93501,-117.140769958496
99.936,-117.900624871254
99.937,-117.109946906567
99.938,-117.219366133213
99.939,-117.672555148602
99.94,-116.755902767181
99.941,-117.417812347412
99.942,-117.223173379898
99.943,-116.681925952435
99.944,-117.495656013489
99.945,-116.685122251511
99.946,-116.909772157669
99.947,-117.241553962231
99.948,-116.367124021053
99.94901,-117.158435285091
99.95,-116.733118891716
99.951,-116.395033895969
99.952,-117.150366306305
99.953,-116.256110370159
99.954,-116.571702063084
99.955,-116.885535418987
99.956,-115.967392921448
99.957,-116.65678024292
99.958,-116.547629237175
99.959,-115.784242749214
99.96,-116.574361920357
99.961,-116.286918520927
99.962,-115.566253662109
99.96301,-116.322576999664
99.964,-116.17162078619
99.965,-115.29503762722
99.966,-115.81352353096
99.967,-116.142265498638
99.968,-115.236207842827
99.969,-114.978596568108
99.97,-115.681335330009
99.971,-115.614086389542
99.972,-114.692248404026
99.973,-114.348977804184
99.974,-114.881969988346
99.975,-115.207850933075
99.976,-114.722512662411
99.97701,-113.850556313992
99.978,-113.317362964153
99.979,-113.361351191998
99.98,-113.704055547714
99.981,-113.960638642311
99.982,-113.942801952362
99.983,-113.661400973797
99.984,-113.214574754238
99.985,-112.722635269165
99.986,-112.286381423473
99.987,-111.997440457344
99.988,-111.943073570728
99.989,-112.179048359394
99.99,-112.679794430733
99.991,-113.231211900711
99.992,-113.4432554245
99.993,-112.869054079056
99.994,-111.228778958321
99.995,-109.132625162601
99.996,-108.462102711201
99.997,-109.56135392189
99.998,-109.542965888977
99.999,-107.048057019711
100,-106.079570949078
