Structure Acceleration, RAO-Based Response
Line A: Structure Acceleration, RAO-Based Response - Global Z (Trimaran - Center of Gravity relative to Origin of Fixed Reference Axes (FRA)) [mm/s²]

*Time (s),Line A (mm/s²)
99.4,-38.6387966573238
99.401,-39.0229150652885
99.402,-39.4067019224167
99.403,-39.7861786186695
99.404,-40.1692800223827
99.405,-40.552020072937
99.406,-40.9343987703323
99.40701,-41.3164272904396
99.408,-41.6980944573879
99.409,-42.079396545887
99.41,-42.4603149294853
99.411,-42.8408794105053
99.412,-43.2210564613342
99.413,-43.596938252449
99.414,-43.9763702452183
99.415,-44.3554073572159
99.416,-44.7301603853703
99.417,-45.1084189116955
99.418,-45.4862825572491
99.419,-45.8637550473213
99.42,-46.23693972826
99.42101,-46.6174818575382
99.422,-46.9898544251919
99.423,-47.3656952381134
99.424,-47.7411299943924
99.425,-48.1161288917065
99.426,-48.4868697822094
99.427,-48.8610304892063
99.428,-49.2347590625286
99.429,-49.6042184531689
99.43,-49.9809421598911
99.431,-50.353366881609
99.432,-50.7253594696522
99.433,-51.0930754244328
99.434,-51.4641776680946
99.43501,-51.8348179757595
99.436,-52.2050149738789
99.437,-52.5747463107109
99.438,-52.9478341341019
99.439,-53.3128380775452
99.44,-53.6811798810959
99.441,-54.0490485727787
99.442,-54.4126555323601
99.443,-54.7795668244362
99.444,-55.1497861742973
99.445,-55.515743792057
99.446,-55.8774396777153
99.447,-56.2424175441265
99.448,-56.6069073975086
99.44901,-56.974645704031
99.45,-57.3381222784519
99.451,-57.7010996639729
99.452,-58.0598413944244
99.453,-58.4255307912827
99.454,-58.7869808077812
99.455,-59.1441988945007
99.456,-59.5046170055866
99.457,-59.8682127892971
99.458,-60.2275729179382
99.459,-60.5827048420906
99.46,-60.9446950256824
99.461,-61.3024607300758
99.462,-61.6596862673759
99.46301,-62.0200484991074
99.464,-62.3761676251888
99.465,-62.7317503094673
99.466,-63.0867779254913
99.467,-63.4449049830437
99.468,-63.7988075613976
99.469,-64.1521438956261
99.47,-64.504936337471
99.471,-64.8607611656189
99.472,-65.2087852358818
99.473,-65.5634626746178
99.474,-65.9139305353165
99.475,-66.2674307823181
99.476,-66.6131377220154
99.47701,-66.9690445065498
99.478,-67.3171803355217
99.479,-67.6646903157234
99.48,-68.0152028799057
99.481,-68.3650821447372
99.482,-68.7072277069092
99.483,-69.0558850765228
99.484,-69.4039165973663
99.485,-69.747768342495
99.486,-70.0910091400146
99.487,-70.4371631145477
99.488,-70.7826688885689
99.489,-71.1240023374557
99.49,-71.4682340621948
99.491,-71.8118101358414
99.492,-72.1547156572342
99.493,-72.4969953298569
99.494,-72.8385671973228
99.495,-73.1760114431381
99.496,-73.5162794589996
99.497,-73.8558620214462
99.498,-74.1912871599197
99.499,-74.5329484343529
99.5,-74.8704820871353
99.501,-75.2073228359222
99.502,-75.5434557795525
99.503,-75.878880918026
99.504,-76.2170255184174
99.505,-76.5510350465775
99.506,-76.8877118825912
99.507,-77.2202685475349
99.508,-77.5521025061607
99.509,-77.8831988573074
99.51,-78.2169252634048
99.511,-78.5465240478516
99.512,-78.8787305355072
99.513,-79.210177063942
99.514,-79.5408487319946
99.515,-79.8673778772354
99.516,-80.1964998245239
99.517,-80.5248022079468
99.518,-80.8490216732025
99.519,-81.1790153384209
99.52,-81.5048962831497
99.521,-81.8266496062279
99.522,-82.1541547775269
99.523,-82.4775397777557
99.524,-82.8000605106354
99.525,-83.1217467784882
99.526,-83.4457874298096
99.527,-83.7657228112221
99.528,-84.0847492218018
99.529,-84.4061225652695
99.53,-84.7233384847641
99.531,-85.0396454334259
99.53201,-85.3614285588264
99.533,-85.6790170073509
99.534,-85.9924852848053
99.535,-86.308129131794
99.536,-86.6227820515633
99.537,-86.9332253932953
99.538,-87.2489884495735
99.539,-87.5604972243309
99.54,-87.8709554672241
99.541,-88.1803035736084
99.542,-88.4885489940643
99.543,-88.7987464666367
99.544,-89.101567864418
99.545,-89.4093811511993
99.54601,-89.7190123796463
99.547,-90.0181233882904
99.548,-90.3220772743225
99.549,-90.6246826052666
99.55,-90.9228324890137
99.551,-91.2225544452667
99.552,-91.5208011865616
99.553,-91.8174684047699
99.554,-92.1124815940857
99.555,-92.4057587981224
99.556,-92.6972702145576
99.557,-92.9868668317795
99.558,-93.2744815945625
99.559,-93.5629159212112
99.56001,-93.8460975885391
99.561,-94.1298604011536
99.562,-94.4109708070755
99.563,-94.6833118796349
99.564,-94.9584990739822
99.565,-95.2303111553192
99.566,-95.4983830451965
99.567,-95.7593992352486
99.568,-96.0186868906021
99.569,-96.2756425142288
99.57,-96.5208560228348
99.571,-96.7620313167572
99.572,-96.9952419400215
99.573,-97.2218364477158
99.57401,-97.4342674016953
99.575,-97.6357907056808
99.576,-97.8203564882278
99.577,-97.977913916111
99.578,-98.113588988781
99.579,-98.2131361961365
99.58,-98.2608795166016
99.581,-98.2424914836884
99.582,-98.1226861476898
99.583,-97.8457778692245
99.584,-97.3061621189117
99.585,-96.3047742843628
99.586,-94.1681116819382
99.587,-86.3827168941498
99.58801,-75.8112221956253
99.589,-66.26096367836
99.59,-61.1323527991772
99.591,-59.6482716500759
99.592,-58.7772503495216
99.593,-58.2403466105461
99.594,-57.9021498560905
99.595,-57.6880276203156
99.596,-57.5565174221992
99.597,-57.4797987937927
99.598,-57.44768679142
99.599,-57.4467666447163
99.6,-57.4670098721981
99.601,-57.5088188052177
99.60201,-57.5656667351723
99.603,-57.6333105564117
99.604,-57.7110424637794
99.605,-57.7971711754799
99.606,-57.8903593122959
99.607,-57.989589869976
99.608,-58.0939874053001
99.609,-58.2028403878212
99.61,-58.3142563700676
99.611,-58.4304109215736
99.612,-58.5495345294476
99.613,-58.6699768900871
99.614,-58.7940588593483
99.615,-58.920182287693
99.616,-59.0468235313892
99.617,-59.1763705015182
99.618,-59.3073517084122
99.619,-59.4369992613792
99.62,-59.5703125
99.621,-59.7033202648163
99.622,-59.8384067416191
99.623,-59.9716752767563
99.624,-60.1080469787121
99.625,-60.2436140179634
99.626,-60.3783279657364
99.627,-60.5145245790482
99.628,-60.6521144509315
99.629,-60.7885196805
99.63,-60.9248653054237
99.631,-61.0610321164131
99.632,-61.1957497894764
99.633,-61.3312982022762
99.634,-61.4663362503052
99.635,-61.6007149219513
99.636,-61.7331527173519
99.637,-61.8658289313316
99.638,-61.9974322617054
99.639,-62.1266439557076
99.64,-62.2544921934605
99.641,-62.3820088803768
99.642,-62.5078529119492
99.643,-62.6307278871536
99.644,-62.7539455890656
99.645,-62.8727152943611
99.646,-62.9902631044388
99.647,-63.1052926182747
99.648,-63.2164478302002
99.649,-63.3246153593063
99.65,-63.4306594729424
99.651,-63.5331720113754
99.652,-63.6308044195175
99.653,-63.7242868542671
99.654,-63.8143867254257
99.655,-63.8995915651321
99.656,-63.9784187078476
99.65701,-64.05358761549
99.658,-64.1192719340324
99.659,-64.1801953315735
99.66,-64.2335489392281
99.661,-64.2786473035812
99.662,-64.3136128783226
99.663,-64.3385276198387
99.664,-64.3533393740654
99.665,-64.354807138443
99.666,-64.3425136804581
99.667,-64.3158257007599
99.668,-64.2718300223351
99.669,-64.207412302494
99.67,-64.3610060214996
99.67101,-64.6698176860809
99.672,-65.0082677602768
99.673,-65.3843134641647
99.674,-65.8063217997551
99.675,-66.2815943360329
99.676,-66.8226331472397
99.677,-67.4446821212769
99.678,-68.1633874773979
99.679,-69.0009146928787
99.68,-69.9818208813667
99.681,-71.1333826184273
99.682,-72.4772363901138
99.683,-74.2967873811722
99.684,-77.5904357433319
99.68501,-81.1912566423416
99.686,-84.9902331829071
99.687,-88.8440310955048
99.688,-92.6013439893723
99.689,-95.9754660725594
99.69,-98.8664627075195
99.691,-101.488694548607
99.692,-103.838533163071
99.693,-105.938091874123
99.694,-107.810601592064
99.695,-109.481550753117
99.696,-110.98175495863
99.697,-112.335562705994
99.698,-113.561399281025
99.69901,-114.678308367729
99.7,-115.701265633106
99.701,-116.639897227287
99.702,-117.267593741417
99.703,-117.765337228775
99.704,-118.232131004333
99.705,-118.667453527451
99.706,-119.077950716019
99.707,-119.464606046677
99.708,-119.827896356583
99.709,-120.17173320055
99.71,-120.494738221169
99.711,-120.800293982029
99.712,-121.085219085217
99.71301,-121.354967355728
99.714,-121.604725718498
99.715,-121.838435530663
99.716,-122.054770588875
99.717,-122.252359986305
99.718,-122.430980205536
99.719,-122.594006359577
99.72,-122.73732572794
99.721,-122.86052107811
99.722,-122.964337468147
99.723,-123.049378395081
99.724,-123.112849891186
99.725,-123.155452311039
99.726,-123.176723718643
99.72701,-123.176351189613
99.728,-123.153179883957
99.729,-123.109333217144
99.73,-123.042896389961
99.731,-122.954539954662
99.732,-122.847273945808
99.733,-122.721403837204
99.734,-122.5765645504
99.735,-122.41818010807
99.736,-122.248008847237
99.737,-122.069180011749
99.738,-121.883615851402
99.739,-121.698342263699
99.74,-121.517106890678
99.741,-121.344670653343
99.742,-121.176816523075
99.743,-120.873242616653
99.744,-120.612442493439
99.745,-120.407581329346
99.746,-120.264738798141
99.747,-120.19244581461
99.748,-120.200634002686
99.749,-120.296701788902
99.75,-120.487689971924
99.751,-120.78133225441
99.752,-121.186748147011
99.753,-121.709197759628
99.754,-122.244864702225
99.755,-122.720971703529
99.756,-123.26941639185
99.757,-123.887993395329
99.758,-124.575957655907
99.759,-125.324249267578
99.76,-126.122757792473
99.761,-126.959621906281
99.762,-127.816915512085
99.763,-128.677874803543
99.764,-129.521131515503
99.765,-130.331575870514
99.766,-131.091341376305
99.767,-131.788551807404
99.76801,-132.417887449265
99.769,-132.974088191986
99.77,-133.382469415665
99.771,-133.063286542892
99.772,-132.766395807266
99.773,-132.501155138016
99.774,-132.274195551872
99.775,-132.090970873833
99.776,-131.953284144402
99.777,-131.862804293633
99.778,-131.821289658546
99.779,-131.827428936958
99.78,-131.879150867462
99.781,-131.974667310715
99.78201,-132.112294435501
99.783,-132.285371422768
99.784,-132.491916418076
99.785,-132.727116346359
99.786,-132.984548807144
99.787,-133.258685469627
99.788,-133.54429602623
99.789,-133.836045861244
99.79,-134.127378463745
99.791,-134.414166212082
99.792,-134.357497096062
99.793,-134.14341211319
99.794,-133.920699357986
99.795,-133.695393800735
99.79601,-133.470147848129
99.797,-133.249908685684
99.798,-133.037999272346
99.799,-132.837399840355
99.8,-132.651224732399
99.801,-132.482171058655
99.802,-132.331326603889
99.803,-132.199332118034
99.804,-132.08732008934
99.805,-131.995096802711
99.806,-131.921693682671
99.807,-131.865695118904
99.808,-131.826385855675
99.809,-131.801724433899
99.81001,-131.790235638618
99.811,-131.789460778236
99.812,-131.797283887863
99.813,-131.811439990997
99.814,-131.829842925072
99.815,-131.849989295006
99.816,-131.869554519653
99.817,-131.886571645737
99.818,-131.898581981659
99.819,-131.903693079948
99.82,-131.899505853653
99.821,-131.884783506393
99.822,-131.857454776764
99.823,-131.816104054451
99.82401,-131.760030984879
99.825,-131.687983870506
99.826,-131.599932909012
99.827,-131.496638059616
99.828,-131.379052996635
99.829,-131.249442696571
99.83,-131.111159920692
99.831,-130.96883893013
99.832,-130.828469991684
99.833,-130.697309970856
99.834,-130.584269762039
99.835,-130.499303340912
99.836,-130.4532289505
99.837,-130.457267165184
99.83801,-130.522072315216
99.839,-130.657076835632
99.84,-130.868673324585
99.841,-131.159245967865
99.842,-131.52514398098
99.843,-131.955578923225
99.844,-132.431581616402
99.845,-132.927507162094
99.846,-133.413046598434
99.847,-133.856356143951
99.848,-134.230181574821
99.849,-134.513407945633
99.85,-134.69186425209
99.851,-134.758085012436
99.85201,-134.709089994431
99.853,-134.546548128128
99.854,-134.282186627388
99.855,-133.944109082222
99.856,-133.582308888435
99.857,-133.267879486084
99.858,-133.078068494797
99.859,-133.074343204498
99.86,-133.276432752609
99.861,-133.650362491608
99.862,-134.109750390053
99.863,-134.543552994728
99.864,-134.834796190262
99.865,-134.585589170456
99.866,-134.529367089272
99.867,-134.663760662079
99.868,-134.378224611282
99.869,-133.969143033028
99.87,-133.671432733536
99.871,-133.627772331238
99.872,-133.867055177689
99.873,-134.266346693039
99.874,-133.938670158386
99.875,-133.533731102943
99.876,-133.433640003204
99.877,-133.646935224533
99.878,-133.974611759186
99.879,-133.726805448532
99.88,-133.651316165924
99.881,-133.710324764252
99.882,-133.096158504486
99.883,-132.546216249466
99.884,-132.408767938614
99.885,-132.710009813309
99.886,-133.090242743492
99.887,-133.174732327461
99.888,-132.81686604023
99.889,-132.114484906197
99.89,-131.512045860291
99.891,-131.499648094177
99.892,-131.950914859772
99.89301,-132.250621914864
99.894,-132.002502679825
99.895,-131.246984004974
99.896,-130.569770932198
99.897,-130.640223622322
99.898,-131.176754832268
99.899,-131.329774856567
99.9,-130.745112895966
99.901,-129.856422543526
99.902,-129.676192998886
99.903,-130.247443914413
99.904,-130.484879016876
99.905,-129.832848906517
99.906,-128.913730382919
99.90701,-128.958463668823
99.908,-129.603728652
99.909,-129.48976457119
99.91,-128.483802080154
99.911,-128.003895282745
99.912,-128.654971718788
99.913,-128.844782710075
99.914,-127.877607941628
99.915,-127.232924103737
99.916,-127.908408641815
99.917,-128.073319792747
99.918,-126.98720395565
99.919,-126.580163836479
99.92,-127.381205558777
99.92101,-127.096891403198
99.922,-125.917121767998
99.923,-126.260787248611
99.924,-126.78524851799
99.925,-125.689119100571
99.926,-125.287786126137
99.927,-126.154139637947
99.928,-125.421941280365
99.929,-124.563984572887
99.93,-125.475347042084
99.931,-124.972559511662
99.932,-123.96351993084
99.933,-124.889761209488
99.934,-124.341078102589
99.93501,-123.42082709074
99.936,-124.404616653919
99.937,-123.566225171089
99.938,-122.997470200062
99.939,-123.92009049654
99.94,-122.69701063633
99.941,-122.741118073463
99.942,-123.291529715061
99.943,-121.878087520599
99.944,-122.577279806137
99.945,-122.441276907921
99.946,-121.27822637558
99.947,-122.319765388966
99.948,-121.449120342731
99.94901,-120.918914675713
99.95,-121.836423873901
99.951,-120.489820837975
99.952,-120.640456676483
99.953,-121.14641815424
99.954,-119.667738676071
99.955,-120.253406465054
99.956,-120.385706424713
99.957,-118.933409452438
99.958,-119.658753275871
99.959,-119.680725038052
99.96,-118.206940591335
99.961,-118.79114061594
99.962,-119.070746004581
99.96301,-117.566056549549
99.964,-117.543868720531
99.965,-118.336424231529
99.966,-117.310225963593
99.967,-116.151630878448
99.968,-116.787642240524
99.969,-117.128044366837
99.97,-115.915179252625
99.971,-114.730589091778
99.972,-115.00458419323
99.973,-115.606501698494
99.974,-115.185856819153
99.975,-113.850377500057
99.976,-112.621672451496
99.97701,-112.249843776226
99.978,-112.528301775455
99.979,-112.817756831646
99.98,-112.726137042046
99.981,-112.203173339367
99.982,-111.375249922276
99.983,-110.415823757648
99.984,-109.470881521702
99.985,-108.674980700016
99.986,-108.141824603081
99.987,-107.975497841835
99.988,-108.193628489971
99.989,-108.640007674694
99.99,-108.921468257904
99.991,-108.64932090044
99.992,-107.642523944378
99.993,-105.563558638096
99.994,-102.920837700367
99.995,-102.270253002644
99.996,-103.353582322598
99.997,-102.725088596344
99.998,-99.6570512652397
99.999,-98.7617820501328
100,-99.5385572314262
