Structure Acceleration, RAO-Based Response
Line A: Structure Acceleration, RAO-Based Response - Global Z (Trimaran - Center of Gravity relative to Origin of Fixed Reference Axes (FRA)) [mm/s²]

*Time (s),Line A (mm/s²)
100,-3.98136069998145
100.001,-3.98118840530515
100.002,-3.98101145401597
100.003,-3.98083170875907
100.004,-3.98065103217959
100.005,-3.98046709597111
100.006,-3.98028362542391
100.007,-3.98009410127997
100.008,-3.97990364581347
100.009,-3.97971272468567
100.01,-3.97951807826757
100.011,-3.97932110354304
100.012,-3.97912133485079
100.013,-3.97892203181982
100.014,-3.97871760651469
100.015,-3.9785117842257
100.016,-3.97830316796899
100.017,-3.97809222340584
100.018,-3.97788174450397
100.019,-3.97766660898924
100.02,-3.97744914516807
100.021,-3.97722888737917
100.022,-3.97700723260641
100.023,-3.97678324952722
100.024,-3.97655600681901
100.025,-3.97632922977209
100.026,-3.97609872743487
100.027,-3.97586543112993
100.028,-3.97563027217984
100.029,-3.97539231926203
100.03,-3.97515436634421
100.031,-3.97491175681353
100.032,-3.97466821596026
100.033,-3.9744209498167
100.034,-3.97417461499572
100.035,-3.97392036393285
100.036,-3.97366704419255
100.037,-3.97341372445226
100.038,-3.9731552824378
100.039,-3.97289451211691
100.04,-3.97263094782829
100.041,-3.9723664522171
100.042,-3.97210149094462
100.043,-3.97183187305927
100.044,-3.97156039252877
100.045,-3.97128658369184
100.046,-3.97101324051619
100.047,-3.9707338437438
100.048,-3.97045398131013
100.049,-3.97017039358616
100.05,-3.96988540887833
100.051,-3.96959716454148
100.052,-3.96930566057563
100.053,-3.9690132252872
100.054,-3.96872172132134
100.055,-3.96842509508133
100.056,-3.9681252092123
100.057,-3.9678243920207
100.058,-3.96752404049039
100.059,-3.9672190323472
100.06,-3.966910764575
100.061,-3.96660109981894
100.062,-3.96628770977259
100.063,-3.96597338840365
100.064,-3.965656273067
100.065,-3.96533776074648
100.066,-3.96501924842596
100.067,-3.96469561383128
100.068,-3.96437011659145
100.069,-3.96404135972261
100.07,-3.96371446549892
100.071,-3.9633815176785
100.072,-3.96304344758391
100.073,-3.9627063088119
100.074,-3.96236730739474
100.075,-3.96202877163887
100.076,-3.96168511360884
100.077,-3.96133493632078
100.078,-3.96099034696817
100.079,-3.96064016968012
100.08,-3.96028673276305
100.081,-3.95993236452341
100.082,-3.95957520231605
100.083,-3.95921524614096
100.084,-3.95885342732072
100.085,-3.95848881453276
100.086,-3.95812233909965
100.087,-3.95775772631168
100.088,-3.9573828689754
100.089,-3.95701080560684
100.09,-3.95663501694798
100.091,-3.95625736564398
100.092,-3.95587738603354
100.093,-3.9554969407618
100.094,-3.95511230453849
100.095,-3.95472580567002
100.096,-3.9543379098177
100.097,-3.95394675433636
100.098,-3.95355001091957
100.099,-3.95315838977695
100.1,-3.95276164636016
100.101,-3.95236210897565
100.102,-3.95195605233312
100.103,-3.95155698060989
100.104,-3.95115045830607
100.105,-3.95073462277651
100.106,-3.95032856613398
100.107,-3.94991599023342
100.108,-3.94949736073613
100.109,-3.94908059388399
100.11,-3.94865730777383
100.111,-3.9482400752604
100.112,-3.9478181861341
100.113,-3.9473888464272
100.114,-3.94696090370417
100.115,-3.94653156399727
100.116,-3.94609896466136
100.117,-3.94566217437387
100.118,-3.94522584974766
100.119,-3.94478440284729
100.12,-3.94434481859207
100.121,-3.94389824941754
100.122,-3.94345540553331
100.123,-3.94300976768136
100.124,-3.94256226718426
100.125,-3.94210824742913
100.126,-3.94165189936757
100.127,-3.94120300188661
100.128,-3.94074292853475
100.129,-3.94028099253774
100.13,-3.93982324749231
100.131,-3.93935758620501
100.132,-3.93889099359512
100.133,-3.93842672929168
100.134,-3.9379564113915
100.135,-3.93748981878161
100.136,-3.93701624125242
100.137,-3.93654638901353
100.138,-3.93607001751661
100.139,-3.93559643998742
100.14,-3.93511727452278
100.141,-3.93463671207428
100.142,-3.9341552183032
100.143,-3.93367744982243
100.144,-3.93319968134165
100.145,-3.93271446228027
100.146,-3.93222412094474
100.147,-3.93174402415752
100.148,-3.93125880509615
100.149,-3.9307726547122
100.15,-3.93028696998954
100.151,-3.92980594187975
100.152,-3.92932165414095
100.153,-3.92883783206344
100.154,-3.92835587263107
100.155,-3.92787577584386
100.156,-3.92740266397595
100.157,-3.92692442983389
100.158,-3.92645318061113
100.159,-3.92598938196898
100.16,-3.92553070560098
100.161,-3.92507994547486
100.162,-3.92464036121964
100.163,-3.92421102151275
100.164,-3.92379658296704
100.165,-3.92340077087283
100.166,-3.92303010448813
100.167,-3.92268318682909
100.168,-3.92238749191165
100.169,-3.92213650047779
100.17,-3.92194930464029
100.171,-3.92186176031828
100.172,-3.92191205173731
100.173,-3.92214581370354
100.174,-3.92267573624849
100.175,-3.92367644235492
100.176,-3.92549624666572
100.177,-3.92880104482174
100.178,-3.93514335155487
100.179,-3.94831039011478
100.18,-3.98365594446659
100.181,-4.04492393136024
100.182,-4.10154508426785
100.183,-4.13269456475973
100.184,-4.14442270994186
100.185,-4.15028864517808
100.186,-4.15343465283513
100.187,-4.15520463138819
100.188,-4.1562020778656
100.189,-4.15672408416867
100.19,-4.15695365518332
100.191,-4.15697880089283
100.192,-4.15685819461942
100.193,-4.15663374587893
100.194,-4.15632920339704
100.195,-4.15595527738333
100.196,-4.1555454954505
100.197,-4.15508728474379
100.198,-4.15459601208568
100.199,-4.15406934916973
100.2,-4.15352499112487
100.201,-4.15296386927366
100.202,-4.15237201377749
100.203,-4.15176898241043
100.204,-4.15115570649505
100.205,-4.15052101016045
100.206,-4.14986675605178
100.207,-4.14920644834638
100.208,-4.14853962138295
100.209,-4.14785463362932
100.21,-4.14716033264995
100.211,-4.14645532146096
100.212,-4.14574006572366
100.213,-4.14502155035734
100.214,-4.14428766816854
100.215,-4.143544472754
100.216,-4.14279289543629
100.217,-4.1420329362154
100.218,-4.1412659920752
100.219,-4.14049811661243
100.22,-4.13972325623035
100.221,-4.13893489167094
100.222,-4.13814093917608
100.223,-4.13734186440706
100.224,-4.13653673604131
100.225,-4.13573533296585
100.226,-4.13492228835821
100.227,-4.13411529734731
100.228,-4.13329713046551
100.229,-4.13248827680945
100.23,-4.13166545331478
100.231,-4.13084961473942
100.232,-4.13003796711564
100.233,-4.12923749536276
100.234,-4.1284435428679
100.235,-4.12765005603433
100.236,-4.12686634808779
100.237,-4.1260989382863
100.238,-4.12533665075898
100.239,-4.1245874017477
100.24,-4.12386236712337
100.241,-4.12315456196666
100.242,-4.12245746701956
100.243,-4.12178225815296
100.244,-4.12112195044756
100.245,-4.12050075829029
100.246,-4.11990005522966
100.247,-4.11933427676558
100.248,-4.11879224702716
100.249,-4.11828886717558
100.25,-4.11781063303351
100.251,-4.11736825481057
100.252,-4.1169561445713
100.253,-4.11658827215433
100.254,-4.11624507978559
100.255,-4.11593215540051
100.256,-4.11565648391843
100.257,-4.11539291962981
100.258,-4.1151437908411
100.259,-4.11489978432655
100.26,-4.11464786157012
100.261,-4.11379989236593
100.262,-4.11240058019757
100.263,-4.11082152277231
100.264,-4.10903012380004
100.265,-4.10700403153896
100.266,-4.10467339679599
100.267,-4.10201586782932
100.268,-4.09899465739727
100.269,-4.09558555111289
100.27,-4.09177923575044
100.271,-4.08755941316485
100.272,-4.08295029774308
100.273,-4.07799798995256
100.274,-4.07274859026074
100.275,-4.06726263463497
100.276,-4.06027445569634
100.277,-4.05305251479149
100.278,-4.04589762911201
100.279,-4.03888896107674
100.28,-4.03211778029799
100.281,-4.02563158422709
100.282,-4.01948532089591
100.283,-4.01369389146566
100.284,-4.00829175487161
100.285,-4.00329474359751
100.286,-3.99871589615941
100.287,-3.99456359446049
100.288,-3.99085646495223
100.289,-3.98759264498949
100.29,-3.98478750139475
100.291,-3.9824484847486
100.292,-3.98059142753482
100.293,-3.97923728451133
100.294,-3.97841166704893
100.295,-3.97813087329268
100.296,-3.9784056134522
100.297,-3.97927593439817
100.298,-3.98075813427567
100.299,-3.98283218964934
100.3,-3.98551858961582
100.301,-3.98878194391727
100.302,-3.99257894605398
100.303,-3.99682344868779
100.304,-4.00138925760984
100.305,-4.00616182014346
100.306,-4.0109776891768
100.307,-4.01565479114652
100.308,-4.02003526687622
100.309,-4.0239836089313
100.31,-4.02736477553844
100.311,-4.03008330613375
100.312,-4.03205445036292
100.313,-4.03323117643595
100.314,-4.03358042240143
100.315,-4.03302581980824
100.316,-4.03152592480183
100.317,-4.02901228517294
100.318,-4.02542436495423
100.319,-4.02067461982369
100.32,-4.01473045349121
100.321,-4.00756532326341
100.322,-3.9992849342525
100.323,-3.99004947394133
100.324,-3.98016907274723
100.325,-3.97007865831256
100.326,-3.96024389192462
100.327,-3.95109551027417
100.328,-3.94301395863295
100.329,-3.93628515303135
100.33,-3.93108185380697
100.331,-3.9274487644434
100.332,-3.92557587474585
100.333,-3.9255116134882
100.334,-3.9272541180253
100.335,-3.93065251410007
100.336,-3.93560109660029
100.337,-3.94183816388249
100.338,-3.94892320036888
100.339,-3.95629461854696
100.34,-3.96326975896955
100.341,-3.96926049143076
100.342,-3.973797429353
100.343,-3.97650105878711
100.344,-3.97715531289577
100.345,-3.9755767211318
100.346,-3.9716768078506
100.347,-3.96541133522987
100.348,-3.95687017589808
100.349,-3.94643750041723
100.35,-3.93484020605683
100.351,-3.92307620495558
100.352,-3.91223793849349
100.353,-3.90303879976273
100.354,-3.8964063860476
100.355,-3.89270880259573
100.356,-3.89211066067219
100.357,-3.89457331039011
100.358,-3.89988394454122
100.359,-3.90745559707284
100.36,-3.91612853854895
100.361,-3.92485642805696
100.362,-3.93238617107272
100.363,-3.93767654895782
100.364,-3.94006446003914
100.365,-3.93920810893178
100.366,-3.93500551581383
100.367,-3.92759032547474
100.368,-3.9174621924758
100.369,-3.90557944774628
100.37,-3.8932585157454
100.371,-3.88187821954489
100.372,-3.87285789474845
100.373,-3.86688741855323
100.374,-3.8642652798444
100.375,-3.86497913859785
100.376,-3.86882107704878
100.377,-3.87532892636955
100.378,-3.88373481109738
100.379,-3.8928366266191
100.38,-3.9013116620481
100.381,-3.90826957300305
100.382,-3.91293922439218
100.383,-3.9149783551693
100.384,-3.91425006091595
100.385,-3.91081348061562
100.386,-3.90488910488784
100.387,-3.89680848456919
100.388,-3.88712296262383
100.389,-3.87646933086216
100.39,-3.86558752506971
100.391,-3.85543634183705
100.392,-3.84659017436206
100.393,-3.83937591686845
100.394,-3.83390788920224
100.395,-3.83012578822672
100.396,-3.827910637483
100.397,-3.82708688266575
100.398,-3.82746802642941
100.399,-3.82887315936387
100.4,-3.831104375422
100.401,-3.83397564291954
100.402,-3.83726507425308
100.403,-3.84079781360924
100.404,-3.84433870203793
100.405,-3.84768052026629
100.406,-3.85061465203762
100.407,-3.85294272564352
100.408,-3.85445076972246
100.409,-3.85491852648556
100.41,-3.85410501621664
100.411,-3.85178439319134
100.412,-3.84760834276676
100.413,-3.84127558209002
100.414,-3.83245409466326
100.415,-3.82089847698808
100.416,-3.80667205899954
100.417,-3.79025051370263
100.418,-3.77275212667882
100.419,-3.75593453645706
100.42,-3.74439940787852
100.421,-3.73510620556772
100.422,-3.72809520922601
100.423,-3.72309307567775
100.424,-3.71976592577994
100.425,-3.71793401427567
100.426,-3.71777708642185
100.427,-3.71999246999621
100.428,-3.72588029131293
100.429,-3.73632065020502
100.43,-3.75187303870916
100.431,-3.76759120263159
100.432,-3.77566716633737
100.433,-3.7733621429652
100.434,-3.75953689217567
100.435,-3.73644870705903
100.436,-3.71880899183452
100.437,-3.70805920101702
100.438,-3.70457302778959
100.439,-3.70835373178124
100.44,-3.72120901010931
100.441,-3.74092650599778
100.442,-3.7496923469007
100.443,-3.7367339245975
100.444,-3.71259800158441
100.445,-3.69738275185227
100.446,-3.69463628157973
100.447,-3.70518048293889
100.448,-3.72603558935225
100.449,-3.73102817684412
100.45,-3.70804267004132
100.451,-3.6886939778924
100.452,-3.68631444871426
100.453,-3.70210246182978
100.454,-3.71990329585969
100.455,-3.70216066949069
100.456,-3.68027575314045
100.457,-3.67950880900025
100.458,-3.69953317567706
100.459,-3.70469409972429
100.46,-3.67795024067163
100.461,-3.6701550707221
100.462,-3.68927512317896
100.463,-3.69412428699434
100.464,-3.66722489707172
100.465,-3.66612570360303
100.466,-3.68908978998661
100.467,-3.67228011600673
100.468,-3.65570141002536
100.469,-3.67520190775394
100.47,-3.6714356392622
100.471,-3.6492794752121
100.472,-3.66719346493483
100.473,-3.66324954666197
100.474,-3.64318070933223
100.475,-3.66466911509633
100.476,-3.6481327842921
100.477,-3.64112551324069
100.478,-3.65903833881021
100.479,-3.63220716826618
100.48,-3.64950695075095
100.481,-3.63561557605863
100.482,-3.63292032852769
100.483,-3.64042678847909
100.484,-3.62193118780851
100.485,-3.63964331336319
100.486,-3.61540354788303
100.487,-3.63486283458769
100.488,-3.61030641943216
100.489,-3.62888537347317
100.49,-3.60545120202005
100.491,-3.62215121276677
100.492,-3.60143068246543
100.493,-3.61283682286739
100.494,-3.60037968493998
100.495,-3.59946675598621
100.496,-3.6032167263329
100.497,-3.58687667176127
100.498,-3.60075803473592
100.499,-3.5842633806169
100.5,-3.58330411836505
100.501,-3.59067041426897
100.502,-3.57276946306229
100.503,-3.57589847408235
100.504,-3.58063285239041
100.505,-3.56448208913207
100.506,-3.56284342706203
100.507,-3.57063743285835
100.508,-3.5610687918961
100.509,-3.54973506182432
100.51,-3.55142215266824
100.511,-3.55623918585479
100.512,-3.54963797144592
100.513,-3.5382523201406
100.514,-3.53285111486912
100.515,-3.53372888639569
100.516,-3.53595381602645
100.517,-3.53409233503044
100.518,-3.52766527794302
100.519,-3.51964076980948
100.52,-3.51257040165365
100.521,-3.50710982456803
100.522,-3.50288418121636
100.523,-3.499313024804
100.524,-3.49590694531798
100.525,-3.49236046895385
100.526,-3.48847010172904
100.527,-3.48420278169215
100.528,-3.47959250211716
100.529,-3.47482739016414
100.53,-3.4701821859926
100.531,-3.46606294624507
100.532,-3.46295582130551
100.533,-3.46099329181015
100.534,-3.45942191779613
100.535,-3.45624703913927
100.536,-3.44987120479345
100.537,-3.44135868363082
100.538,-3.43415583483875
100.539,-3.43075348064303
100.54,-3.43035790137947
100.541,-3.42803215608001
100.542,-3.42018390074372
100.543,-3.4109887201339
100.544,-3.40612977743149
100.545,-3.40568972751498
100.546,-3.40374954976141
100.547,-3.39582120068371
100.548,-3.38657898828387
100.549,-3.38163343258202
100.55,-3.38075729086995
100.551,-3.37897683493793
100.552,-3.37238470092416
100.553,-3.36343888193369
100.554,-3.35639109835029
100.555,-3.35240364074707
100.556,-3.3503221347928
100.557,-3.34814027883112
100.558,-3.34446877241135
100.559,-3.3393029589206
100.56,-3.33342771045864
100.561,-3.32759623415768
100.562,-3.32220690324903
100.563,-3.31739243119955
100.564,-3.31322988495231
100.565,-3.30964545719326
100.566,-3.30621260218322
100.567,-3.30175925046206
100.568,-3.29481530934572
100.569,-3.28603317029774
100.57,-3.2799185719341
100.571,-3.28059936873615
100.572,-3.28100589103997
100.573,-3.26876668259501
100.574,-3.26529750600457
100.575,-3.26921418309212
100.576,-3.2540294341743
100.577,-3.26276454143226
100.578,-3.24551574885845
100.579,-3.25797963887453
100.58,-3.23865190148354
100.581,-3.2410086132586
100.582,-3.249476198107
100.583,-3.23495664633811
100.584,-3.22350393980742
100.585,-3.22042941115797
100.586,-3.22015420533717
100.587,-3.21693369187415
100.588,-3.20587074384093
100.589,-3.22123384103179
100.59,-3.22904414497316
100.591,-3.19974520243704
100.592,-3.194366581738
100.593,-3.213447984308
100.594,-3.18689085543156
100.595,-3.20117734372616
100.596,-3.18638398312032
100.597,-3.17875575274229
100.598,-3.18264658562839
100.599,-3.18308710120618
100.6,-3.17951524630189
