Structure Acceleration, RAO-Based Response
Line A: Structure Acceleration, RAO-Based Response - Global Z (Trimaran - Center of Gravity relative to Origin of Fixed Reference Axes (FRA)) [mm/s²]

*Time (s),Line A (mm/s²)
100,-5.35229872912169
100.001,-5.35185635089874
100.002,-5.3514102473855
100.003,-5.35095576196909
100.004,-5.35050127655268
100.005,-5.35004353150725
100.006,-5.34958019852638
100.007,-5.34910894930363
100.008,-5.34863444045186
100.009,-5.34815853461623
100.01,-5.34768030047417
100.011,-5.34719601273537
100.012,-5.34670427441597
100.013,-5.34621207043529
100.014,-5.34571707248688
100.015,-5.34521648660302
100.016,-5.34471310675144
100.017,-5.34420041367412
100.018,-5.34368818625808
100.019,-5.34317130222917
100.02,-5.34265115857124
100.021,-5.3421170450747
100.022,-5.34158851951361
100.023,-5.34105487167835
100.024,-5.34051796421409
100.025,-5.33997686579823
100.026,-5.33942691981792
100.027,-5.3388774394989
100.028,-5.33832423388958
100.029,-5.33776683732867
100.03,-5.33719919621944
100.031,-5.33663388341665
100.032,-5.33606391400099
100.033,-5.33548928797245
100.034,-5.33490674570203
100.035,-5.33431861549616
100.036,-5.33373234793544
100.037,-5.33314142376184
100.038,-5.33254723995924
100.039,-5.3319432772696
100.04,-5.33134071156383
100.041,-5.33073395490646
100.042,-5.33012300729752
100.043,-5.32950228080153
100.044,-5.3288834169507
100.045,-5.328259896487
100.046,-5.32763171941042
100.047,-5.32699981704354
100.048,-5.32635301351547
100.049,-5.32570853829384
100.05,-5.32506359741092
100.051,-5.32441586256027
100.052,-5.32375741750002
100.053,-5.32310176640749
100.054,-5.32244145870209
100.055,-5.3217769600451
100.056,-5.32110873609781
100.057,-5.32043026760221
100.058,-5.31975226476789
100.059,-5.31907193362713
100.06,-5.31838741153479
100.061,-5.31769124791026
100.062,-5.31699974089861
100.063,-5.31629612669349
100.064,-5.3155948407948
100.065,-5.31488982960582
100.066,-5.31417364254594
100.067,-5.31345279887319
100.068,-5.31273661181331
100.069,-5.31201483681798
100.07,-5.31128142029047
100.071,-5.31055126339197
100.072,-5.30981738120317
100.073,-5.30907837674022
100.074,-5.30833099037409
100.075,-5.30758360400796
100.076,-5.30682783573866
100.077,-5.3060669451952
100.078,-5.3053074516356
100.079,-5.30453817918897
100.08,-5.30377216637135
100.081,-5.30300056561828
100.082,-5.3022257052362
100.083,-5.30143268406391
100.084,-5.30064944177866
100.085,-5.29986340552568
100.086,-5.29907224699855
100.087,-5.29827736318111
100.088,-5.2974633872509
100.089,-5.29666151851416
100.09,-5.29585406184196
100.091,-5.29503542929888
100.092,-5.2942056208849
100.093,-5.29338605701923
100.094,-5.29256323352456
100.095,-5.29172876849771
100.096,-5.29089756309986
100.097,-5.29005518183112
100.098,-5.28920767828822
100.099,-5.28836436569691
100.1,-5.28751779347658
100.101,-5.2866511978209
100.102,-5.2857962436974
100.103,-5.28493616729975
100.104,-5.28406538069248
100.105,-5.28318993747234
100.106,-5.28230471536517
100.107,-5.28142880648375
100.108,-5.28054218739271
100.109,-5.27965929359198
100.11,-5.27875777333975
100.111,-5.27786603197455
100.112,-5.27696497738361
100.113,-5.27605880051851
100.114,-5.27514889836311
100.115,-5.27423387393355
100.116,-5.27332536876202
100.117,-5.27240382507443
100.118,-5.27147715911269
100.119,-5.2705411799252
100.12,-5.26960799470544
100.121,-5.26867294684052
100.122,-5.26773184537888
100.123,-5.26678655296564
100.124,-5.26583939790726
100.125,-5.26488991454244
100.126,-5.26393577456474
100.127,-5.26297697797418
100.128,-5.26200700551271
100.129,-5.2610426209867
100.13,-5.26008289307356
100.131,-5.25911152362823
100.132,-5.25811966508627
100.133,-5.25714177638292
100.134,-5.25616062805057
100.135,-5.25517575442791
100.136,-5.25418994948268
100.137,-5.25319064036012
100.138,-5.25218900293112
100.139,-5.25119388476014
100.14,-5.25019550696015
100.141,-5.24918641895056
100.142,-5.24818571284413
100.143,-5.24718035012484
100.144,-5.24617126211524
100.145,-5.2451454102993
100.146,-5.24412700906396
100.147,-5.24311559274793
100.148,-5.24209346622229
100.149,-5.24108111858368
100.15,-5.24005992338061
100.151,-5.23903826251626
100.152,-5.2380277775228
100.153,-5.2370154298842
100.154,-5.23598631843925
100.155,-5.23498188704252
100.156,-5.23397233337164
100.157,-5.23297442123294
100.158,-5.23197371512651
100.159,-5.23097114637494
100.16,-5.22999046370387
100.161,-5.22902049124241
100.162,-5.22807380184531
100.163,-5.22712850943208
100.164,-5.22621488198638
100.165,-5.22534362971783
100.166,-5.22449612617493
100.167,-5.22369937971234
100.168,-5.22295199334621
100.169,-5.22230798378587
100.17,-5.221763625741
100.171,-5.22136921063066
100.172,-5.22117968648672
100.173,-5.22130867466331
100.174,-5.22190053015947
100.175,-5.22326538339257
100.176,-5.22593595087528
100.177,-5.23104006424546
100.178,-5.24118123576045
100.179,-5.26272784918547
100.18,-5.32314600422978
100.181,-5.42030250653625
100.182,-5.5031175725162
100.183,-5.54510904476047
100.184,-5.56082185357809
100.185,-5.56861143559217
100.186,-5.57270646095276
100.187,-5.57488016784191
100.188,-5.57596562430263
100.189,-5.57638611644506
100.19,-5.5763591080904
100.191,-5.57604525238276
100.192,-5.57551952078938
100.193,-5.57484710589051
100.194,-5.57403219863772
100.195,-5.57313300669193
100.196,-5.57215791195631
100.197,-5.57112973183393
100.198,-5.57003961876035
100.199,-5.568893160671
100.2,-5.56772807613015
100.201,-5.56651828810573
100.202,-5.56527683511376
100.203,-5.56400930508971
100.204,-5.56271430104971
100.205,-5.56139601394534
100.206,-5.56006701663136
100.207,-5.55870495736599
100.208,-5.5573252029717
100.209,-5.5559235624969
100.21,-5.55451679974794
100.211,-5.55309280753136
100.212,-5.55163016542792
100.213,-5.55017404258251
100.214,-5.54869137704372
100.215,-5.54720545187593
100.216,-5.54569438099861
100.217,-5.54416934028268
100.218,-5.54263219237328
100.219,-5.54109225049615
100.22,-5.5395420640707
100.221,-5.53796952590346
100.222,-5.53638767451048
100.223,-5.53480815142393
100.224,-5.53321884945035
100.225,-5.53161324933171
100.226,-5.53001277148724
100.227,-5.52840763702989
100.228,-5.52678806707263
100.229,-5.52518013864756
100.23,-5.52354706451297
100.231,-5.52194286137819
100.232,-5.52034331485629
100.233,-5.51875168457627
100.234,-5.51716843619943
100.235,-5.51557308062911
100.236,-5.51401637494564
100.237,-5.51247643306851
100.238,-5.51095651462674
100.239,-5.509446375072
100.24,-5.50797116011381
100.241,-5.50652528181672
100.242,-5.50509849563241
100.243,-5.50370430573821
100.244,-5.502347368747
100.245,-5.50104212015867
100.246,-5.49978064373136
100.247,-5.49855316057801
100.248,-5.4973722435534
100.249,-5.49625838175416
100.25,-5.49519713968039
100.251,-5.49418991431594
100.252,-5.49321295693517
100.253,-5.4923165589571
100.254,-5.49147604033351
100.255,-5.49068534746766
100.256,-5.48992911353707
100.257,-5.48919942229986
100.258,-5.48852048814297
100.259,-5.48785412684083
100.26,-5.48718310892582
100.261,-5.48523478209972
100.262,-5.48260286450386
100.263,-5.47968642786145
100.264,-5.47643937170506
100.265,-5.47279184684157
100.266,-5.46870660036802
100.267,-5.46414451673627
100.268,-5.45904505997896
100.269,-5.453378893435
100.27,-5.44711854308844
100.271,-5.44028589501977
100.272,-5.43293263763189
100.273,-5.42510394006968
100.274,-5.41688594967127
100.275,-5.40837040171027
100.276,-5.39735238999128
100.277,-5.3861360065639
100.278,-5.375100299716
100.279,-5.36431930959225
100.28,-5.35394623875618
100.281,-5.34402066841722
100.282,-5.33462455496192
100.283,-5.32578630372882
100.284,-5.3175613284111
100.285,-5.30996406450868
100.286,-5.30301127582788
100.287,-5.29673462733626
100.288,-5.29110757634044
100.289,-5.28620416298509
100.29,-5.28201600536704
100.291,-5.27857942506671
100.292,-5.27588045224547
100.293,-5.27400523424149
100.294,-5.27294678613544
100.295,-5.27276704087853
100.296,-5.27346925809979
100.297,-5.27512282133102
100.298,-5.27770072221756
100.299,-5.28120389208198
100.3,-5.2856202237308
100.301,-5.29084308072925
100.302,-5.29678957536817
100.303,-5.30328787863255
100.304,-5.31012704595923
100.305,-5.31705841422081
100.306,-5.32381096854806
100.307,-5.33016491681337
100.308,-5.33586554229259
100.309,-5.34074148163199
100.31,-5.34460181370378
100.311,-5.34735852852464
100.312,-5.34851988777518
100.313,-5.34823210909963
100.314,-5.34697249531746
100.315,-5.34465350210667
100.316,-5.34124579280615
100.317,-5.33567043021321
100.318,-5.32818026840687
100.319,-5.31886192038655
100.32,-5.3077251650393
100.321,-5.29487617313862
100.322,-5.28061017394066
100.323,-5.26535790413618
100.324,-5.24981273338199
100.325,-5.23465080186725
100.326,-5.22055570036173
100.327,-5.20808110013604
100.328,-5.19766611978412
100.329,-5.18962508067489
100.33,-5.18411304801702
100.331,-5.1812338642776
100.332,-5.18104806542397
100.333,-5.18355378881097
100.334,-5.18867466598749
100.335,-5.19615318626165
100.336,-5.2054850384593
100.337,-5.21596986800432
100.338,-5.22669963538647
100.339,-5.23668993264437
100.34,-5.24500897154212
100.341,-5.25094615295529
100.342,-5.2540609613061
100.343,-5.25399902835488
100.344,-5.2505093626678
100.345,-5.2434615790844
100.346,-5.23281190544367
100.347,-5.21883741021156
100.348,-5.20221795886755
100.349,-5.18418103456497
100.35,-5.16630616039038
100.351,-5.15026040375233
100.352,-5.1371930167079
100.353,-5.1281088963151
100.354,-5.12362038716674
100.355,-5.1239188760519
100.356,-5.12887258082628
100.357,-5.13792457059026
100.358,-5.14971697703004
100.359,-5.16281602904201
100.36,-5.17521565780044
100.361,-5.18505414947867
100.362,-5.19093405455351
100.363,-5.19202975556254
100.364,-5.18800737336278
100.365,-5.17886085435748
100.366,-5.16501534730196
100.367,-5.1476308144629
100.368,-5.12862158939242
100.369,-5.11022191494703
100.37,-5.09454170241952
100.371,-5.08334534242749
100.372,-5.07733272388577
100.373,-5.07669430226088
100.374,-5.08117908611894
100.375,-5.09015051648021
100.376,-5.10240346193314
100.377,-5.11583685874939
100.378,-5.12873753905296
100.379,-5.13931317254901
100.38,-5.14628738164902
100.381,-5.14896446838975
100.382,-5.14717400074005
100.383,-5.14101795852184
100.384,-5.13086561113596
100.385,-5.11730927973986
100.386,-5.10138040408492
100.387,-5.08441869169474
100.388,-5.06748398765922
100.389,-5.05224335938692
100.39,-5.03952242434025
100.391,-5.02976449206471
100.392,-5.02303568646312
100.393,-5.01917162910104
100.394,-5.01792458817363
100.395,-5.01902075484395
100.396,-5.02210296690464
100.397,-5.02687692642212
100.398,-5.03291981294751
100.399,-5.03984559327364
100.4,-5.04726963117719
100.401,-5.05472114309669
100.402,-5.06170513108373
100.403,-5.06792031228542
100.404,-5.07319997996092
100.405,-5.077357403934
100.406,-5.08019002154469
100.407,-5.08161261677742
100.408,-5.08145848289132
100.409,-5.07969688624144
100.41,-5.07613644003868
100.411,-5.07069937884808
100.412,-5.06317988038063
100.413,-5.05351647734642
100.414,-5.04156900569797
100.415,-5.0273472443223
100.416,-5.01075992360711
100.417,-4.99254371970892
100.418,-4.97352657839656
100.419,-4.9546817317605
100.42,-4.93712583556771
100.421,-4.92188287898898
100.422,-4.9098813906312
100.423,-4.90193441510201
100.424,-4.89883311092854
100.425,-4.90153394639492
100.426,-4.91076521575451
100.427,-4.92646638303995
100.428,-4.94633102789521
100.429,-4.96551115065813
100.43,-4.97824931517243
100.431,-4.98012360185385
100.432,-4.9686636775732
100.433,-4.94423927739263
100.434,-4.91277547553182
100.435,-4.88538155332208
100.436,-4.87152440473437
100.437,-4.87549975514412
100.438,-4.8964568413794
100.439,-4.92314016446471
100.44,-4.93633048608899
100.441,-4.9240724183619
100.442,-4.89008985459805
100.443,-4.85688680782914
100.444,-4.84752282500267
100.445,-4.8674251884222
100.446,-4.89764241501689
100.447,-4.90235723555088
100.448,-4.87036351114511
100.449,-4.83296671882272
100.45,-4.82968520373106
100.451,-4.86106239259243
100.452,-4.87914262339473
100.453,-4.84903994947672
100.454,-4.80999983847141
100.455,-4.81723016127944
100.456,-4.852713085711
100.457,-4.84290346503258
100.458,-4.79674013331532
100.459,-4.79620834812522
100.46,-4.8333196900785
100.461,-4.81540244072676
100.462,-4.77206707000732
100.463,-4.79384791105986
100.464,-4.81444643810391
100.465,-4.76634223014116
100.466,-4.76447632536292
100.467,-4.79854084551334
100.468,-4.75459592416883
100.469,-4.74740145727992
100.47,-4.78054909035563
100.471,-4.73167886957526
100.472,-4.7413925640285
100.473,-4.75555192679167
100.474,-4.70709055662155
100.475,-4.74439654499292
100.476,-4.71039395779371
100.477,-4.70764422789216
100.478,-4.71980962902308
100.479,-4.67935344204307
100.48,-4.71472879871726
100.481,-4.66391397640109
100.482,-4.69956779852509
100.483,-4.65276790782809
100.484,-4.68278117477894
100.485,-4.63989237323403
100.486,-4.66823345050216
100.487,-4.62395837530494
100.488,-4.65502170845866
100.489,-4.60780691355467
100.49,-4.63771028444171
100.491,-4.59854584187269
100.492,-4.60844114422798
100.493,-4.60089603438973
100.494,-4.57248464226723
100.495,-4.59660077467561
100.496,-4.55917045474052
100.497,-4.55784192308784
100.498,-4.56817960366607
100.499,-4.53026778995991
100.5,-4.53154649585485
100.501,-4.54096822068095
100.502,-4.50853630900383
100.503,-4.49431827291846
100.504,-4.50725853443146
100.505,-4.49665263295174
100.506,-4.46654064580798
100.507,-4.45489073172212
100.508,-4.46126842871308
100.509,-4.45927120745182
100.51,-4.43933391943574
100.511,-4.41525736823678
100.512,-4.4001224450767
100.513,-4.39478363841772
100.514,-4.39290376380086
100.515,-4.38852561637759
100.516,-4.37930226325989
100.517,-4.3662041425705
100.518,-4.35117399320006
100.519,-4.33588027954102
100.52,-4.32118540629745
100.521,-4.30743442848325
100.522,-4.29473491385579
100.523,-4.28308919072151
100.524,-4.27231146022677
100.525,-4.26205387338996
100.526,-4.25125611945987
100.527,-4.23801224678755
100.528,-4.2202603071928
100.529,-4.19750018045306
100.53,-4.17324434965849
100.531,-4.15474269539118
100.532,-4.14724089205265
100.533,-4.1452837176621
100.534,-4.13191271945834
100.535,-4.10193298012018
100.536,-4.07684547826648
100.537,-4.07303683459759
100.538,-4.06875647604465
100.539,-4.03900956735015
100.54,-4.01138700544834
100.541,-4.01020096614957
100.542,-4.00004722177982
100.543,-3.9645666256547
100.544,-3.94826056435704
100.545,-3.94901866093278
100.546,-3.92214767634869
100.547,-3.8916664198041
100.548,-3.88955068774521
100.549,-3.87820485047996
100.55,-3.84312658570707
100.551,-3.82566335611045
100.552,-3.82489385083318
100.553,-3.80440521985292
100.554,-3.77159169875085
100.555,-3.75578994862735
100.556,-3.75259388238192
100.557,-3.73895955272019
100.558,-3.71163710951805
100.559,-3.68502223864198
100.56,-3.6677778698504
100.561,-3.65744507871568
100.562,-3.64811392500997
100.563,-3.6363210529089
100.564,-3.62201081588864
100.565,-3.60651430673897
100.566,-3.59090208075941
100.567,-3.57525353319943
100.568,-3.55837191455066
100.569,-3.53820784948766
100.57,-3.51427472196519
100.571,-3.49288596771657
100.572,-3.48643818870187
100.573,-3.49158025346696
100.574,-3.47105460241437
100.575,-3.43895517289639
100.576,-3.45480348914862
100.577,-3.42564005404711
100.578,-3.42213315889239
100.579,-3.40637727640569
100.58,-3.41298570856452
100.581,-3.3703853841871
100.582,-3.40101844631135
100.583,-3.39153548702598
100.584,-3.35148605518043
100.585,-3.33597837015986
100.586,-3.33834253251553
100.587,-3.33827454596758
100.588,-3.31376283429563
100.589,-3.27593833208084
100.59,-3.26415221206844
100.591,-3.26520390808582
100.592,-3.29073914326727
100.593,-3.24952113442123
100.594,-3.27427568845451
100.595,-3.24462889693677
100.596,-3.27246519736946
100.597,-3.24886478483677
100.598,-3.23957693763077
100.599,-3.24053899385035
100.6,-3.24053899385035
