Structure Acceleration, RAO-Based Response
Line A: Structure Acceleration, RAO-Based Response - Global Z (Trimaran - Center of Gravity relative to Origin of Fixed Reference Axes (FRA)) [mm/s²]

*Time (s),Line A (mm/s²)
100,-14.9216158315539
100.001,-14.9262817576528
100.002,-14.9309393018484
100.003,-14.935509301722
100.004,-14.9400271475315
100.005,-14.9445356801152
100.006,-14.9489575996995
100.007,-14.9533664807677
100.008,-14.9577232077718
100.009,-14.9619951844215
100.01,-14.9662187322974
100.011,-14.9704264476895
100.012,-14.9745512753725
100.013,-14.9786258116364
100.014,-14.9826826527715
100.015,-14.9866594001651
100.016,-14.9905830621719
100.017,-14.9944918230176
100.018,-14.9983186274767
100.019,-15.0020960718393
100.02,-15.0058520957828
100.021,-15.0095596909523
100.022,-15.0131899863482
100.023,-15.0167969986796
100.024,-15.0203546509147
100.025,-15.0238322094083
100.026,-15.0272892788053
100.027,-15.0306662544608
100.028,-15.0339966639876
100.029,-15.0372991338372
100.03,-15.0405317544937
100.031,-15.0437345728278
100.032,-15.0468628853559
100.033,-15.0499446317554
100.034,-15.0529956445098
100.035,-15.0560000911355
100.036,-15.0589309632778
100.037,-15.0618329644203
100.038,-15.0646613910794
100.039,-15.0674385949969
100.04,-15.0701953098178
100.041,-15.072874724865
100.042,-15.0755001232028
100.043,-15.078105032444
100.044,-15.0806326419115
100.045,-15.0831127539277
100.046,-15.0855630636215
100.047,-15.0879621505737
100.048,-15.0902885943651
100.049,-15.0926047936082
100.05,-15.0948353111744
100.051,-15.0970118120313
100.052,-15.0991594418883
100.053,-15.1012372225523
100.054,-15.1032637804747
100.055,-15.1052596047521
100.056,-15.1071986183524
100.057,-15.1090789586306
100.058,-15.1109211146832
100.059,-15.1126943528652
100.06,-15.1144210249186
100.061,-15.1161113753915
100.062,-15.1177505031228
100.063,-15.11933747679
100.064,-15.1208750903606
100.065,-15.122345648706
100.066,-15.1237696409225
100.067,-15.1251647621393
100.068,-15.1264872401953
100.069,-15.1277659460902
100.07,-15.1289887726307
100.071,-15.1301641017199
100.072,-15.131295658648
100.073,-15.1323620229959
100.074,-15.1333790272474
100.075,-15.1343634352088
100.076,-15.1352779939771
100.077,-15.1361469179392
100.078,-15.1369739323854
100.079,-15.1377357542515
100.08,-15.1384528726339
100.081,-15.1391159743071
100.082,-15.1397250592709
100.083,-15.1402894407511
100.084,-15.1407988741994
100.085,-15.1412570849061
100.086,-15.1416547596455
100.087,-15.1420123875141
100.088,-15.1423085480928
100.089,-15.1425572112203
100.09,-15.1427527889609
100.091,-15.1428915560246
100.092,-15.1429828256369
100.093,-15.1430163532495
100.094,-15.1429995894432
100.095,-15.1429297402501
100.096,-15.14280308038
100.097,-15.1426214724779
100.098,-15.1423877105117
100.099,-15.1420990005136
100.1,-15.1417525485158
100.101,-15.1413567364216
100.102,-15.1409031823277
100.103,-15.1403937488794
100.104,-15.1398265734315
100.105,-15.1391997933388
100.106,-15.1385189965367
100.107,-15.1377776637673
100.108,-15.1369823142886
100.109,-15.1361199095845
100.11,-15.1352062821388
100.111,-15.1342377066612
100.112,-15.1332085952163
100.113,-15.1321012526751
100.114,-15.1309575885534
100.115,-15.1297468692064
100.116,-15.128456056118
100.117,-15.1271242648363
100.118,-15.1257207617164
100.119,-15.124237164855
100.12,-15.1227004826069
100.121,-15.121110714972
100.122,-15.1194334030151
100.123,-15.1177002117038
100.124,-15.1159111410379
100.125,-15.1140261441469
100.126,-15.1120824739337
100.127,-15.1100642979145
100.128,-15.1079632341862
100.129,-15.1057997718453
100.13,-15.10358043015
100.131,-15.1012353599072
100.132,-15.0988223031163
100.133,-15.0963487103581
100.134,-15.0937754660845
100.135,-15.09112957865
100.136,-15.0883998721838
100.137,-15.0855397805572
100.138,-15.0826266035438
100.139,-15.0796016678214
100.14,-15.076476149261
100.141,-15.0732668116689
100.142,-15.0699140504003
100.143,-15.0664886459708
100.144,-15.0629365816712
100.145,-15.0592625141144
100.146,-15.0554403662682
100.147,-15.0515083223581
100.148,-15.0474105030298
100.149,-15.0432204827666
100.15,-15.0388544425368
100.151,-15.0343021377921
100.152,-15.0296054780483
100.153,-15.0247132405639
100.154,-15.0196086615324
100.155,-15.0143187493086
100.156,-15.008769929409
100.157,-15.0029752403498
100.158,-14.9969356134534
100.159,-14.9906072765589
100.16,-14.9838645011187
100.161,-14.9768590927124
100.162,-14.9694187566638
100.163,-14.9615295231342
100.164,-14.9531420320272
100.165,-14.9442199617624
100.166,-14.9345891550183
100.167,-14.9242356419563
100.168,-14.913042075932
100.169,-14.9007653817534
100.17,-14.8873142898083
100.171,-14.872376807034
100.172,-14.8557079955935
100.173,-14.8368598893285
100.174,-14.8152522742748
100.175,-14.7901680320501
100.176,-14.7605938836932
100.177,-14.724999666214
100.178,-14.6812852472067
100.179,-14.6264173090458
100.18,-14.5559459924698
100.181,-14.4642563536763
100.182,-14.2189487814903
100.183,-13.5586559772491
100.184,-12.7192186191678
100.185,-11.8465209379792
100.186,-11.1792488023639
100.187,-10.9232189133763
100.188,-10.8054596930742
100.189,-10.7174105942249
100.19,-10.6496745720506
100.191,-10.5960248038173
100.192,-10.5524016544223
100.193,-10.5162318795919
100.194,-10.4856630787253
100.195,-10.4593858122826
100.196,-10.4365758597851
100.197,-10.4165328666568
100.198,-10.3987501934171
100.199,-10.3828515857458
100.2,-10.3685390204191
100.201,-10.3555303066969
100.202,-10.3437257930636
100.203,-10.3329345583916
100.204,-10.3230299428105
100.205,-10.313905775547
100.206,-10.3055192157626
100.207,-10.2977016940713
100.208,-10.2904429659247
100.209,-10.2836787700653
100.21,-10.2774119004607
100.211,-10.2715026587248
100.212,-10.2659659460187
100.213,-10.2608073502779
100.214,-10.2559514343739
100.215,-10.251322761178
100.216,-10.2469371631742
100.217,-10.2428216487169
100.218,-10.2388560771942
100.219,-10.2351093664765
100.22,-10.2315191179514
100.221,-10.2280136197805
100.222,-10.2247158065438
100.223,-10.2214617654681
100.224,-10.2182254195213
100.225,-10.2150877937675
100.226,-10.2120377123356
100.227,-10.2088842540979
100.228,-10.2057745680213
100.229,-10.2026769891381
100.23,-10.1993568241596
100.231,-10.196047835052
100.232,-10.1926755160093
100.233,-10.1890433579683
100.234,-10.1853422820568
100.235,-10.1813785731792
100.236,-10.1771270856261
100.237,-10.1727265864611
100.238,-10.167975910008
100.239,-10.1629048585892
100.24,-10.1574761793017
100.241,-10.1516544818878
100.242,-10.1454062387347
100.243,-10.1386802271008
100.244,-10.1314419880509
100.245,-10.1235853508115
100.246,-10.1152211427689
100.247,-10.1060718297958
100.248,-10.0962985306978
100.249,-10.0856581702828
100.25,-10.0740781053901
100.251,-10.0616468116641
100.252,-10.0480951368809
100.253,-10.0333709269762
100.254,-10.017360560596
100.255,-9.99999046325684
100.256,-9.9809318780899
100.257,-9.96013171970844
100.258,-9.93752386420965
100.259,-9.9126398563385
100.26,-9.88547410815954
100.261,-9.85555630177259
100.262,-9.822609834373
100.263,-9.7862770780921
100.264,-9.75045002996922
100.265,-9.77890659123659
100.266,-9.8110344260931
100.267,-9.84711199998856
100.268,-9.88712348043919
100.269,-9.93144884705544
100.27,-9.97991859912872
100.271,-10.0324293598533
100.272,-10.088917799294
100.273,-10.1487319916487
100.274,-10.2112758904696
100.275,-10.2757345885038
100.276,-10.3410128504038
100.277,-10.4058925062418
100.278,-10.5259865522385
100.279,-10.7230748981237
100.28,-10.9147829934955
100.281,-11.0985580831766
100.282,-11.2722208723426
100.283,-11.4347692579031
100.284,-11.5853045135736
100.285,-11.723667383194
100.286,-11.850293725729
100.287,-11.9655998423696
100.288,-12.0700141415
100.289,-12.160899117589
100.29,-12.2364778071642
100.291,-12.3041840270162
100.292,-12.364711612463
100.293,-12.4185746535659
100.294,-12.4659538269043
100.295,-12.507501989603
100.296,-12.5434156507254
100.297,-12.5736612826586
100.298,-12.5986728817225
100.299,-12.6182930544019
100.3,-12.6325963065028
100.301,-12.6417018473148
100.302,-12.6453526318073
100.303,-12.6433242112398
100.304,-12.6355877146125
100.305,-12.6219252124429
100.306,-12.6019427552819
100.307,-12.5756300985813
100.308,-12.5425076112151
100.309,-12.50244025141
100.31,-12.4554447829723
100.311,-12.4012911692262
100.312,-12.339967302978
100.313,-12.2717954218388
100.314,-12.1973697096109
100.315,-12.1171334758401
100.316,-12.0322862640023
100.317,-11.9437845423818
100.318,-11.8512529879808
100.319,-11.7502193897963
100.32,-11.6505399346352
100.321,-11.5544265136123
100.322,-11.463918723166
100.323,-11.3807739689946
100.324,-11.3070290535688
100.325,-11.2441219389439
100.326,-11.1934086307883
100.327,-11.1562591046095
100.328,-11.1340163275599
100.329,-11.1275147646666
100.33,-11.1379297450185
100.331,-11.1661674454808
100.332,-11.2128350883722
100.333,-11.2786134704947
100.334,-11.363634839654
100.335,-11.4671941846609
100.336,-11.5880966186523
100.337,-11.7206145077944
100.338,-11.8496082723141
100.339,-11.9843445718288
100.34,-12.1199646964669
100.341,-12.2513454407454
100.342,-12.3742967844009
100.343,-12.4846836552024
100.344,-12.5791076570749
100.345,-12.6557014882565
100.346,-12.7127384766936
100.347,-12.7491746097803
100.348,-12.7644455060363
100.349,-12.7580435946584
100.35,-12.7298245206475
100.351,-12.6801487058401
100.352,-12.6097723841667
100.353,-12.5205628573895
100.354,-12.415380217135
100.355,-12.2984796762466
100.356,-12.1760424226522
100.357,-12.0544815436006
100.358,-11.9405630975962
100.359,-11.8408687412739
100.36,-11.7603288963437
100.361,-11.7030795663595
100.362,-11.6717740893364
100.363,-11.6682443767786
100.364,-11.6930613294244
100.365,-11.7465332150459
100.366,-11.8272257968783
100.367,-11.9321281090379
100.368,-12.056864798069
100.369,-12.1943112462759
100.37,-12.3360445722938
100.371,-12.4732740223408
100.372,-12.597675435245
100.373,-12.702314183116
100.374,-12.7829033881426
100.375,-12.7912918105721
100.376,-12.7896564081311
100.377,-12.78156042099
100.378,-12.7671640366316
100.379,-12.7468910068274
100.38,-12.7104334533215
100.381,-12.6176010817289
100.382,-12.509279884398
100.383,-12.3906210064888
100.384,-12.2667634859681
100.385,-12.1430112048984
100.386,-12.0244659483433
100.387,-11.9153270497918
100.388,-11.8183689191937
100.389,-11.7359235882759
100.39,-11.6686318069696
100.391,-11.616506613791
100.392,-11.5788951516151
100.393,-11.5546267479658
100.394,-11.5426518023014
100.395,-11.541111394763
100.396,-11.5482285618782
100.397,-11.5625895559788
100.398,-11.5823792293668
100.399,-11.6054015234113
100.4,-11.6300228983164
100.401,-11.6539727896452
100.402,-11.675076559186
100.403,-11.6910990327597
100.404,-11.6994502022862
100.405,-11.6971489042044
100.406,-11.6809215396643
100.407,-11.6471163928509
100.408,-11.5913432091475
100.409,-11.5087348967791
100.41,-11.3941011950374
100.411,-11.2423794344068
100.412,-11.0504003241658
100.413,-10.8034564182162
100.414,-10.4974377900362
100.415,-10.1663917303085
100.416,-9.8307766020298
100.417,-9.51214507222176
100.418,-9.22763254493475
100.419,-9.07377153635025
100.42,-8.99558141827583
100.421,-8.93792882561684
100.422,-8.90422146767378
100.423,-8.8990144431591
100.424,-8.92769917845726
100.425,-8.99505987763405
100.426,-9.26630944013596
100.427,-9.68593452125788
100.428,-10.1262014359236
100.429,-10.500667616725
100.43,-10.7357101514935
100.431,-10.8297737315297
100.432,-10.7925534248352
100.433,-10.6083378195763
100.434,-10.2256797254086
100.435,-9.71764698624611
100.436,-9.25096776336432
100.437,-8.97560175508261
100.438,-8.96166637539864
100.439,-9.23182349652052
100.44,-9.72881447523832
100.441,-10.233610868454
100.442,-10.4887457564473
100.443,-10.4473223909736
100.444,-10.0819254294038
100.445,-9.48203634470701
100.446,-9.03003290295601
100.447,-8.9950654655695
100.448,-9.40924976021051
100.449,-10.0000891834497
100.45,-10.2722980082035
100.451,-10.0909350439906
100.452,-9.46529768407345
100.453,-8.94914474338293
100.454,-9.02029406279325
100.455,-9.61495935916901
100.456,-10.0561426952481
100.457,-9.90051031112671
100.458,-9.20557230710983
100.459,-8.81262123584747
100.46,-9.20824054628611
100.461,-9.82221681624651
100.462,-9.76256560534239
100.463,-9.0391943231225
100.464,-8.7277190759778
100.465,-9.31059196591377
100.466,-9.70815680921078
100.467,-9.20283421874046
100.468,-8.60143639147282
100.469,-9.05031617730856
100.47,-9.53616015613079
100.471,-9.00176540017128
100.472,-8.48060008138418
100.473,-9.10573918372393
100.474,-9.29475668817759
100.475,-8.50245635956526
100.476,-8.59180092811584
100.477,-9.19496547430754
100.478,-8.59811808913946
100.479,-8.31233244389296
100.48,-9.00762062519789
100.481,-8.51491279900074
100.482,-8.17546620965004
100.483,-8.85121617466211
100.484,-8.23458097875118
100.485,-8.17186012864113
100.486,-8.65964870899916
100.487,-7.85701908171177
100.488,-8.35367478430271
100.489,-8.20449274033308
100.49,-7.76137970387936
100.491,-8.33083409816027
100.492,-7.54865445196629
100.493,-8.11475701630116
100.494,-7.6186889782548
100.495,-7.75704672560096
100.496,-7.69819505512714
100.497,-7.4326959438622
100.498,-7.66026647761464
100.499,-7.20553193241358
100.5,-7.52148125320673
100.501,-7.05018639564514
100.502,-7.32013303786516
100.503,-6.95660756900907
100.504,-7.04167736694217
100.505,-6.93176407366991
100.506,-6.67350739240646
100.507,-6.90747238695621
100.508,-6.32198248058558
100.509,-6.76125008612871
100.51,-6.20250822976232
100.511,-6.36291969567537
100.512,-6.33326312527061
100.513,-5.83640579134226
100.514,-6.17455178871751
100.515,-5.85618242621422
100.516,-5.56836044415832
100.517,-5.83137013018131
100.518,-5.50708314403892
100.519,-5.20032923668623
100.52,-5.41166123002768
100.521,-5.24835381656885
100.522,-4.82897320762277
100.523,-4.83936816453934
100.524,-4.90668881684542
100.525,-4.67331055551767
100.526,-4.3152691796422
100.527,-4.23152931034565
100.528,-4.27346117794514
100.529,-4.16602892801166
100.53,-3.92066454514861
100.531,-3.62415798008442
100.532,-3.44160199165344
100.533,-3.37306689471006
100.534,-3.30741424113512
100.535,-3.18832416087389
100.536,-3.02004907280207
100.537,-2.81621632166207
100.538,-2.59809056296945
100.539,-2.3673428222537
100.54,-2.15436425060034
100.541,-1.9698878750205
100.542,-1.81025930214673
100.543,-1.668072771281
100.544,-1.53260107617825
100.545,-1.3781557790935
100.546,-1.21806794777513
100.547,-1.04991486296058
100.548,-.872209086082876
100.549,-.685836304910481
100.55,-.492631923407316
100.551,-.295772100798786
100.552,-9.84373036772013E-02
100.553,.109320739284158
100.554,.293072778731585
100.555,.445584300905466
100.556,.586207024753094
100.557,.745135359466076
100.558,.912204850465059
100.559,1.08558731153607
100.56,1.26302265562117
100.561,1.44410831853747
100.562,1.57150346785784
100.563,1.73170189373195
100.564,1.88157893717289
100.565,2.04128562472761
100.566,2.16596131213009
100.567,2.32999306172132
100.568,2.44092009961605
100.569,2.56980326958001
100.57,2.73574027232826
100.571,2.82666878774762
100.572,2.97319632954895
100.573,3.04434285499156
100.574,3.18395625799894
100.575,3.25130391865969
100.576,3.41053796000779
100.577,3.43641545623541
100.578,3.61498445272446
100.579,3.59681062400341
100.58,3.66336759179831
100.581,3.83059564046562
100.582,3.89441009610891
100.583,3.83956637233496
100.584,3.86785762384534
100.585,3.90570657327771
100.586,3.9440430700779
100.587,3.96778108552098
100.588,3.95188480615616
100.589,3.96009394899011
100.59,3.97237855941057
100.591,3.97974764928222
100.592,3.95643012598157
100.593,3.95589880645275
100.594,3.98280564695597
100.595,3.94019298255444
100.596,3.95742664113641
100.597,3.923324868083
100.598,3.93511680886149
100.599,3.89749649912119
100.6,3.88885196298361
