Structure Acceleration, RAO-Based Response
Line A: Structure Acceleration, RAO-Based Response - Global Z (Trimaran - Center of Gravity relative to Origin of Fixed Reference Axes (FRA)) [mm/s²]

*Time (s),Line A (mm/s²)
99.7,-23.2856217771769
99.701,-23.3035907149315
99.702,-23.321621119976
99.703,-23.3394242823124
99.70399,-23.3572907745838
99.70499,-23.3749262988567
99.70599,-23.3926251530647
99.707,-23.4102420508862
99.708,-23.4276261180639
99.709,-23.4450772404671
99.71,-23.4623029828072
99.711,-23.4797168523073
99.712,-23.4967768192291
99.713,-23.5138926655054
99.714,-23.5307849943638
99.715,-23.5477294772863
99.716,-23.5645864158869
99.717,-23.581363260746
99.71799,-23.5979221761227
99.71899,-23.6145276576281
99.71999,-23.6310474574566
99.721,-23.6474890261889
99.722,-23.6638430505991
99.723,-23.6801151186228
99.724,-23.6962977796793
99.725,-23.712269961834
99.726,-23.7284135073423
99.727,-23.7442199140787
99.728,-23.7600635737181
99.729,-23.775827139616
99.73,-23.7915012985468
99.731,-23.8070916384459
99.73199,-23.8225962966681
99.73299,-23.8380189985037
99.73399,-23.8532274961472
99.735,-23.8687228411436
99.736,-23.8837637007236
99.737,-23.8989684730768
99.738,-23.9138398319483
99.739,-23.9288657903671
99.74,-23.9435657858849
99.741,-23.95842038095
99.742,-23.9730719476938
99.743,-23.9876322448254
99.744,-24.0021087229252
99.745,-24.0165051072836
99.74599,-24.0308102220297
99.74699,-24.0450315177441
99.74799,-24.0592788904905
99.749,-24.0733232349157
99.75,-24.0873973816633
99.751,-24.1012740880251
99.752,-24.1150595247746
99.753,-24.1287667304277
99.754,-24.1424851119518
99.755,-24.1560135036707
99.756,-24.1695642471313
99.757,-24.1828113794327
99.758,-24.1960771381855
99.759,-24.209376424551
99.75999,-24.2224670946598
99.76099,-24.2355801165104
99.76199,-24.2484956979752
99.763,-24.2615379393101
99.764,-24.2742858827114
99.765,-24.2870487272739
99.766,-24.299617856741
99.767,-24.3122018873692
99.768,-24.3245959281921
99.769,-24.3370085954666
99.77,-24.3492312729359
99.771,-24.3613682687283
99.772,-24.3735071271658
99.77299,-24.3854690343142
99.77399,-24.397436529398
99.77499,-24.4092233479023
99.77599,-24.4210138916969
99.777,-24.4327168911695
99.778,-24.4443193078041
99.779,-24.455763399601
99.78,-24.4672894477844
99.781,-24.4785472750664
99.782,-24.4898032397032
99.783,-24.5008859783411
99.784,-24.5118755847216
99.785,-24.5229545980692
99.786,-24.5337691158056
99.78699,-24.5445817708969
99.78799,-24.5552230626345
99.78899,-24.5659463107586
99.78999,-24.5764050632715
99.791,-24.586945772171
99.792,-24.5973151177168
99.793,-24.6075876057148
99.794,-24.6176980435848
99.795,-24.627797305584
99.796,-24.6378090232611
99.797,-24.6477294713259
99.798,-24.6575567871332
99.799,-24.6672984212637
99.8,-24.676950648427
99.80099,-24.6864352375269
99.80199,-24.6959868818521
99.80299,-24.705296382308
99.80399,-24.7146617621183
99.805,-24.7239395976067
99.806,-24.7330479323864
99.807,-24.742066860199
99.808,-24.750929325819
99.809,-24.7598439455032
99.81,-24.7685331851244
99.811,-24.777265265584
99.812,-24.7858352959156
99.813,-24.7943140566349
99.814,-24.8027052730322
99.81499,-24.8110760003328
99.81599,-24.8192213475704
99.81699,-24.8274058103561
99.81799,-24.8354356735945
99.819,-24.8434990644455
99.82,-24.8512849211693
99.821,-24.8590428382158
99.822,-24.8667672276497
99.823,-24.8743444681168
99.824,-24.8818900436163
99.825,-24.8892270028591
99.826,-24.8965863138437
99.827,-24.9038059264421
99.828,-24.9109845608473
99.82899,-24.9180160462856
99.82999,-24.925010278821
99.83099,-24.9318610876799
99.832,-24.9387305229902
99.833,-24.9453950673342
99.834,-24.9519720673561
99.835,-24.9585099518299
99.836,-24.9649025499821
99.837,-24.9712634831667
99.838,-24.9774735420942
99.839,-24.9836426228285
99.84,-24.9896757304668
99.841,-24.9956585466862
99.842,-25.0015053898096
99.84299,-25.0073038041592
99.84399,-25.012968108058
99.84499,-25.0185858458281
99.846,-25.0241532921791
99.847,-25.0295475125313
99.848,-25.0348877161741
99.849,-25.0400938093662
99.85,-25.0452477484941
99.851,-25.0503085553646
99.852,-25.0552874058485
99.853,-25.0601265579462
99.854,-25.0649098306894
99.855,-25.0696055591106
99.856,-25.0742081552744
99.85699,-25.0786822289228
99.85799,-25.0831339508295
99.85899,-25.0874198973179
99.86,-25.0916872173548
99.861,-25.0958297401667
99.862,-25.0998418778181
99.863,-25.1038242131472
99.864,-25.107653811574
99.865,-25.1114517450333
99.866,-25.1150932163
99.867,-25.1187067478895
99.868,-25.1221656799316
99.869,-25.1255910843611
99.87,-25.1288674771786
99.87099,-25.1321028918028
99.87199,-25.1351948827505
99.87299,-25.1382272690535
99.874,-25.1412037760019
99.875,-25.1440182328224
99.876,-25.1467861235142
99.877,-25.1494385302067
99.878,-25.152001529932
99.879,-25.1544676721096
99.88,-25.1568574458361
99.881,-25.1591242849827
99.882,-25.1613277941942
99.883,-25.1634176820517
99.884,-25.1654144376516
99.88499,-25.1673273742199
99.88599,-25.1691453158855
99.88699,-25.1708775758743
99.888,-25.1725167036057
99.889,-25.1740626990795
99.89,-25.1755025237799
99.891,-25.1768492162228
99.892,-25.178100913763
99.893,-25.1792781054974
99.894,-25.1803435385227
99.895,-25.1813270151615
99.896,-25.1822099089622
99.897,-25.1830015331507
99.89799,-25.1837018877268
99.89899,-25.1843016594648
99.89999,-25.184815749526
99.90099,-25.1852292567492
99.902,-25.1855552196503
99.903,-25.1857824623585
99.904,-25.1859165728092
99.905,-25.1859556883574
99.906,-25.1859035342932
99.907,-25.1857563853264
99.908,-25.1855105161667
99.909,-25.1851826906204
99.91,-25.1847505569458
99.911,-25.1842234283686
99.91199,-25.1836031675339
99.91299,-25.1828953623772
99.91399,-25.1820888370275
99.91499,-25.1811798661947
99.916,-25.1801796257496
99.917,-25.1790843904018
99.918,-25.1779053360224
99.919,-25.1766219735146
99.92,-25.175254791975
99.921,-25.1737795770168
99.922,-25.1722242683172
99.923,-25.1705758273602
99.924,-25.1688193529844
99.925,-25.1669734716415
99.92599,-25.1650363206863
99.92699,-25.1629948616028
99.92799,-25.1608658581972
99.92899,-25.1586455851793
99.93,-25.1562874764204
99.931,-25.1538921147585
99.932,-25.1513607800007
99.933,-25.1487772911787
99.934,-25.1460820436478
99.935,-25.1432694494724
99.936,-25.1404065638781
99.937,-25.1374002546072
99.938,-25.134326890111
99.939,-25.13113245368
99.93999,-25.1278951764107
99.94099,-25.1245144754648
99.94199,-25.1210574060678
99.94299,-25.1174829900265
99.944,-25.1138135790825
99.945,-25.1100771129131
99.946,-25.1062400639057
99.947,-25.1023154705763
99.948,-25.0982604920864
99.949,-25.0941421836615
99.95,-25.0899065285921
99.951,-25.0855982303619
99.952,-25.0811707228422
99.953,-25.0766761600971
99.95399,-25.0720474869013
99.95499,-25.0673703849316
99.95599,-25.0625535845757
99.957,-25.0576436519623
99.958,-25.0526014715433
99.959,-25.047542527318
99.96,-25.0423811376095
99.961,-25.037094950676
99.962,-25.0317491590977
99.963,-25.0262264162302
99.964,-25.0206924974918
99.965,-25.0150188803673
99.966,-25.0092539936304
99.967,-25.0033941119909
99.96799,-24.9974839389324
99.96899,-24.9913819134235
99.96999,-24.9852817505598
99.971,-24.978943169117
99.972,-24.972653016448
99.973,-24.9662138521671
99.974,-24.9596852809191
99.975,-24.9530617147684
99.976,-24.9463468790054
99.977,-24.9395295977592
99.978,-24.9326173216105
99.979,-24.9256193637848
99.98,-24.9184593558311
99.981,-24.9113216996193
99.98199,-24.9039772897959
99.98299,-24.896590039134
99.98399,-24.8890519142151
99.985,-24.8814132064581
99.986,-24.8738024383783
99.987,-24.865971878171
99.988,-24.858120828867
99.989,-24.8501002788544
99.99,-24.8420499265194
99.991,-24.8338356614113
99.992,-24.8255971819162
99.993,-24.8171966522932
99.994,-24.8087644577026
99.995,-24.8001739382744
99.99599,-24.7915498912334
99.99699,-24.7827004641294
99.99799,-24.7738864272833
99.999,-24.7649103403091
100,-24.7558373957872
100.001,-24.7467420995235
100.002,-24.7374083846807
100.003,-24.728124961257
100.004,-24.7186720371246
100.005,-24.7091222554445
100.006,-24.6994756162167
100.007,-24.6897339820862
100.008,-24.6798973530531
100.009,-24.6699638664722
100.00999,-24.6599372476339
100.01099,-24.6498137712479
100.01199,-24.6396735310555
100.013,-24.6292017400265
100.014,-24.6187895536423
100.015,-24.6082041412592
100.016,-24.5976820588112
100.017,-24.586908519268
100.018,-24.5761107653379
100.019,-24.5651416480541
100.02,-24.5542451739311
100.021,-24.5430823415518
100.022,-24.5319120585918
100.02299,-24.5205536484718
100.02399,-24.5091896504164
100.02499,-24.4977362453938
100.02599,-24.4860872626305
100.027,-24.4743488729
100.028,-24.4624204933643
100.029,-24.4505796581507
100.03,-24.4385544210672
100.031,-24.4265198707581
100.032,-24.4143027812243
100.033,-24.4019906967878
100.034,-24.3895798921585
100.035,-24.3771709501743
100.036,-24.3645682930946
100.03699,-24.351866915822
100.03799,-24.3390668183565
100.03899,-24.3261847645044
100.03999,-24.313198402524
100.041,-24.300018325448
100.042,-24.2868419736624
100.043,-24.2735724896193
100.044,-24.2602005600929
100.045,-24.2466349154711
100.046,-24.2330748587847
100.047,-24.2194179445505
100.048,-24.2056678980589
100.049,-24.1918247193098
100.05,-24.1777766495943
100.05099,-24.1637397557497
100.05199,-24.149501696229
100.05299,-24.135272949934
100.05399,-24.1208411753178
100.055,-24.1063125431538
100.056,-24.0916889160872
100.057,-24.0770801901817
100.058,-24.0622702986002
100.059,-24.0474659949541
100.06,-24.0324661135674
100.061,-24.0173600614071
100.062,-24.0022726356983
100.063,-23.9869840443134
100.064,-23.9715911448002
100.06499,-23.9561032503843
100.06599,-23.9406377077103
100.06699,-23.9248406141996
100.06799,-23.9091850817204
100.069,-23.8930862396955
100.07,-23.8771233707666
100.071,-23.8610617816448
100.072,-23.8449033349752
100.073,-23.8286517560482
100.074,-23.8123070448637
100.075,-23.795872926712
100.076,-23.7792078405619
100.077,-23.7625800073147
100.078,-23.7458515912294
100.07899,-23.7290300428867
100.07999,-23.7119887024164
100.08099,-23.6949734389782
100.082,-23.6776098608971
100.083,-23.6604139208794
100.084,-23.6429814249277
100.085,-23.6255880445242
100.086,-23.6079748719931
100.087,-23.5902592539787
100.088,-23.5725846141577
100.089,-23.5546734184027
100.09,-23.5366746783257
100.091,-23.5185828059912
100.092,-23.5005337744951
100.09299,-23.4821103513241
100.09399,-23.4638657420874
100.09499,-23.4452523291111
100.096,-23.426678031683
100.097,-23.407869040966
100.098,-23.389246314764
100.099,-23.3703907579184
100.1,-23.3513042330742
100.101,-23.3323946595192
100.102,-23.3131162822247
100.103,-23.2938788831234
100.104,-23.2744012027979
100.105,-23.2551228255033
100.106,-23.2354532927275
100.10699,-23.2158396393061
100.10799,-23.1959819793701
100.10899,-23.1761801987886
100.11,-23.1559816747904
100.111,-23.1359899044037
100.112,-23.1159087270498
100.113,-23.0954214930534
100.114,-23.0751503258944
100.115,-23.0546221137047
100.116,-23.0341628193855
100.117,-23.0133011937141
100.118,-22.9926444590092
100.119,-22.9717437177896
100.12,-22.9507479816675
100.12099,-22.9296591132879
100.12199,-22.9084771126509
100.12299,-22.8872019797564
100.124,-22.8656660765409
100.125,-22.8443648666143
100.126,-22.8226408362389
100.127,-22.8009801357985
100.128,-22.7792300283909
100.129,-22.7573923766613
100.13,-22.7352883666754
100.131,-22.7132551372051
100.132,-22.6909723132849
100.133,-22.6689241826534
100.134,-22.6464420557022
100.13499,-22.6240381598473
100.13599,-22.6013753563166
100.13699,-22.5787796080112
100.138,-22.555761039257
100.139,-22.5328095257282
100.14,-22.5099343806505
100.141,-22.4868003278971
100.142,-22.4637407809496
100.143,-22.4404223263264
100.144,-22.4169977009296
100.145,-22.393487393856
100.146,-22.369883954525
100.147,-22.3461855202913
100.14799,-22.3225709050894
100.14899,-22.2985055297613
100.14999,-22.2747065126896
100.15099,-22.2506430000067
100.152,-22.226108238101
100.153,-22.2020372748375
100.154,-22.177504375577
100.155,-22.1530627459288
100.156,-22.1285242587328
100.157,-22.10390008986
100.158,-22.0789946615696
100.159,-22.0541842281818
100.16,-22.0290906727314
100.161,-22.004097700119
100.16199,-21.9788122922182
100.16299,-21.9536330550909
100.16399,-21.928358823061
100.16499,-21.9028014689684
100.166,-21.8771547079086
100.167,-21.8514166772366
100.168,-21.8257773667574
100.169,-21.7996556311846
100.17,-21.7738375067711
100.171,-21.7477306723595
100.172,-21.7215269804001
100.173,-21.6952282935381
100.174,-21.6688439249992
100.175,-21.6425638645887
100.17599,-21.6160025447607
100.17699,-21.5893425047398
100.17799,-21.5623900294304
100.17899,-21.5357448905706
100.18,-21.5084161609411
100.181,-21.4813835918903
100.182,-21.4542672038078
100.183,-21.4270632714033
100.184,-21.3995613157749
100.185,-21.37216553092
100.186,-21.3444847613573
100.187,-21.3169120252132
100.188,-21.2892442941666
100.189,-21.2612897157669
100.18999,-21.2334468960762
100.19099,-21.2053116410971
100.19199,-21.1772825568914
100.19299,-21.1489591747522
100.194,-21.1205538362265
100.195,-21.0920497775078
100.196,-21.0634488612413
100.197,-21.034762263298
100.198,-21.00620418787
100.199,-20.9771208465099
100.2,-20.9483839571476
100.201,-20.9195520728827
100.202,-20.8902023732662
100.203,-20.8611916750669
100.20399,-20.831661298871
100.20499,-20.8022575825453
100.20599,-20.7727681845427
100.207,-20.7429695874453
100.208,-20.7130741328001
100.209,-20.6835325807333
100.21,-20.6534657627344
100.211,-20.623529329896
100.212,-20.5932781100273
100.213,-20.5631591379642
100.214,-20.5329600721598
100.215,-20.5024387687445
100.216,-20.4720553010702
100.217,-20.441360771656
100.21799,-20.4108078032732
100.21899,-20.379938185215
100.21999,-20.3492064028978
100.221,-20.3179307281971
100.222,-20.2870164066553
100.223,-20.2555637806654
100.224,-20.2244818210602
100.225,-20.1933067291975
100.226,-20.1615840196609
100.227,-20.1302394270897
100.228,-20.0983416289091
100.229,-20.0668219476938
100.23,-20.0347527861595
100.231,-20.0030505657196
100.23199,-19.9708044528961
100.23299,-19.938949495554
100.23399,-19.9065245687962
100.235,-19.8740102350712
100.236,-19.8416486382484
100.237,-19.8092013597488
100.238,-19.7766683995724
100.239,-19.7438038885593
100.24,-19.7111014276743
100.241,-19.6780655533075
100.242,-19.645182415843
100.243,-19.611980766058
100.244,-19.5789355784655
100.245,-19.5455532521009
100.24599,-19.5123367011547
100.24699,-19.4787867367268
100.24799,-19.4453950971365
100.249,-19.4114279001951
100.25,-19.3776246160269
100.251,-19.3439815193415
100.252,-19.3100031465292
100.253,-19.2759390920401
100.254,-19.2417912185192
100.255,-19.2075632512569
100.256,-19.1732477396727
100.257,-19.1388465464115
100.258,-19.1043596714735
100.259,-19.0697908401489
100.25999,-19.0351437777281
100.26099,-19.0004017204046
100.26199,-18.9653281122446
100.263,-18.9304202795029
100.264,-18.8954379409552
100.265,-18.8601072877645
100.266,-18.824951723218
100.267,-18.7894608825445
100.268,-18.7541432678699
100.269,-18.7184866517782
100.27,-18.6829920858145
100.271,-18.6471715569496
100.272,-18.611516803503
100.27299,-18.5755249112844
100.27399,-18.5397043824196
100.27499,-18.5035541653633
100.27599,-18.4675734490156
100.277,-18.4312574565411
100.278,-18.3945838361979
100.279,-18.3583665639162
100.28,-18.3217953890562
100.281,-18.2851515710354
100.282,-18.2484220713377
100.283,-18.2116068899632
100.284,-18.1747172027826
100.285,-18.1377436965704
100.286,-18.1006900966167
100.28699,-18.0635508149862
100.28799,-18.0263370275497
100.28899,-17.9890431463718
100.28999,-17.9516691714525
100.291,-17.9139431566
100.292,-17.876410856843
100.293,-17.8385283797979
100.294,-17.8008284419775
100.295,-17.7627839148045
100.296,-17.7249312400818
100.297,-17.6867246627808
100.298,-17.6487229764462
100.299,-17.6103580743074
100.3,-17.5721868872643
