Structure Acceleration, RAO-Based Response
Line A: Structure Acceleration, RAO-Based Response - Global RY (Trimaran) [?s²]
,
*Time (s),Line A (?s?
99,4.81E-03
99.001,4.79E-03
99.002,4.76E-03
99.003,4.74E-03
99.004,4.71E-03
99.005,4.69E-03
99.006,4.66E-03
99.007,4.64E-03
99.008,4.61E-03
99.009,4.59E-03
99.01,4.56E-03
99.011,4.54E-03
99.012,4.52E-03
99.013,4.49E-03
99.014,4.47E-03
99.015,4.44E-03
99.016,4.42E-03
99.017,4.39E-03
99.018,4.37E-03
99.019,4.34E-03
99.02,4.32E-03
99.021,4.29E-03
99.022,4.27E-03
99.023,4.25E-03
99.024,4.22E-03
99.025,4.20E-03
99.026,4.17E-03
99.027,4.15E-03
99.028,4.12E-03
99.029,4.10E-03
99.03,4.07E-03
99.031,4.05E-03
99.032,4.02E-03
99.033,4.00E-03
99.034,3.98E-03
99.035,3.95E-03
99.036,3.93E-03
99.037,3.90E-03
99.038,3.88E-03
99.039,3.85E-03
99.04,3.83E-03
99.041,3.80E-03
99.042,3.78E-03
99.043,3.75E-03
99.044,3.73E-03
99.045,3.71E-03
99.046,3.68E-03
99.047,3.66E-03
99.048,3.63E-03
99.049,3.61E-03
99.05,3.58E-03
99.051,3.56E-03
99.052,3.53E-03
99.053,3.51E-03
99.054,3.49E-03
99.055,0.003460948
99.056,3.44E-03
99.057,3.41E-03
99.058,3.39E-03
99.059,3.36E-03
99.06,3.34E-03
99.061,3.31E-03
99.062,3.29E-03
99.063,3.27E-03
99.064,3.24E-03
99.065,3.22E-03
99.066,3.19E-03
99.067,3.17E-03
99.068,3.14E-03
99.069,3.12E-03
99.07,3.09E-03
99.071,3.07E-03
99.072,3.05E-03
99.073,3.02E-03
99.074,3.00E-03
99.075,2.97E-03
99.076,2.95E-03
99.077,2.92E-03
99.078,2.90E-03
99.079,2.87E-03
99.08,2.85E-03
99.081,2.83E-03
99.082,2.80E-03
99.083,2.78E-03
99.084,2.75E-03
99.085,2.73E-03
99.086,2.70E-03
99.087,2.68E-03
99.088,2.66E-03
99.089,2.63E-03
99.09,2.61E-03
99.091,2.58E-03
99.092,2.56E-03
99.093,2.53E-03
99.094,2.51E-03
99.095,2.48E-03
99.096,2.46E-03
99.097,2.44E-03
99.098,2.41E-03
99.099,2.39E-03
99.1,2.36E-03
99.101,2.34E-03
99.102,2.31E-03
99.103,2.29E-03
99.104,2.27E-03
99.105,2.24E-03
99.106,2.22E-03
99.107,2.19E-03
99.108,2.17E-03
99.109,2.15E-03
99.11,2.12E-03
99.111,2.10E-03
99.112,2.07E-03
99.113,2.05E-03
99.114,2.02E-03
99.115,2.00E-03
99.116,1.98E-03
99.117,1.95E-03
99.118,1.93E-03
99.119,1.90E-03
99.12,1.88E-03
99.121,1.86E-03
99.122,1.83E-03
99.123,1.81E-03
99.124,1.78E-03
99.125,1.76E-03
99.126,1.74E-03
99.127,1.71E-03
99.128,1.69E-03
99.129,1.66E-03
99.13,1.64E-03
99.131,1.62E-03
99.132,1.59E-03
99.133,1.57E-03
99.134,1.54E-03
99.135,1.52E-03
99.136,1.50E-03
99.137,1.47E-03
99.138,1.45E-03
99.139,1.43E-03
99.14,1.40E-03
99.141,1.38E-03
99.142,1.36E-03
99.143,1.33E-03
99.144,1.31E-03
99.145,1.29E-03
99.146,1.26E-03
99.147,1.24E-03
99.148,1.22E-03
99.149,1.19E-03
99.15,1.17E-03
99.151,1.15E-03
99.152,1.12E-03
99.153,1.10E-03
99.154,1.08E-03
99.155,1.05E-03
99.156,1.03E-03
99.157,1.01E-03
99.158,9.87E-04
99.159,9.65E-04
99.16,9.43E-04
99.161,9.21E-04
99.162,8.99E-04
99.163,8.77E-04
99.164,8.56E-04
99.165,8.35E-04
99.166,8.14E-04
99.167,7.94E-04
99.168,7.74E-04
99.169,7.55E-04
99.17,7.36E-04
99.171,7.18E-04
99.172,7.01E-04
99.173,6.85E-04
99.174,6.70E-04
99.175,6.58E-04
99.176,6.48E-04
99.177,6.43E-04
99.178,6.43E-04
99.179,6.53E-04
99.18,6.81E-04
99.181,7.44E-04
99.182,9.00E-04
99.183,1.45E-03
99.184,1.68E-03
99.185,2.83E-04
99.186,-4.47E-06
99.187,-1.20E-04
99.188,-1.79E-04
99.189,-2.02E-04
99.19,-2.04E-04
99.191,-1.93E-04
99.192,-1.73E-04
99.193,-1.48E-04
99.194,-1.18E-04
99.195,-8.55E-05
99.196,-5.02E-05
99.197,-1.29E-05
99.198,2.64E-05
99.199,6.70E-05
99.2,1.08E-04
99.201,1.45E-04
99.202,1.78E-04
99.203,2.08E-04
99.204,2.34E-04
99.205,2.58E-04
99.206,2.80E-04
99.207,2.99E-04
99.208,3.16E-04
99.209,3.32E-04
99.21,3.47E-04
99.211,3.64E-04
99.212,3.83E-04
99.213,4.05E-04
99.214,4.28E-04
99.215,4.54E-04
99.216,4.81E-04
99.217,5.10E-04
99.218,5.39E-04
99.219,5.67E-04
99.22,5.94E-04
99.221,6.18E-04
99.222,6.42E-04
99.223,6.64E-04
99.224,6.85E-04
99.225,7.05E-04
99.226,7.27E-04
99.227,7.49E-04
99.228,7.73E-04
99.229,7.98E-04
99.23,8.23E-04
99.231,8.48E-04
99.232,8.73E-04
99.233,8.97E-04
99.234,9.21E-04
99.235,9.44E-04
99.236,9.69E-04
99.237,9.93E-04
99.238,1.02E-03
99.239,1.04E-03
99.24,1.07E-03
99.241,1.09E-03
99.242,1.11E-03
99.243,1.13E-03
99.244,1.15E-03
99.245,1.18E-03
99.246,1.20E-03
99.247,1.23E-03
99.248,1.26E-03
99.249,1.28E-03
99.25,1.31E-03
99.251,1.33E-03
99.252,1.35E-03
99.253,1.37E-03
99.254,1.39E-03
99.255,1.41E-03
99.256,1.44E-03
99.257,1.46E-03
99.258,1.50E-03
99.259,1.54E-03
99.26,1.58E-03
99.261,1.63E-03
99.262,1.70E-03
99.263,1.91E-03
99.264,-1.48E-03
99.265,-1.64E-03
99.266,-1.69E-03
99.267,-1.73E-03
99.268,-1.76E-03
99.269,-1.79E-03
99.27,-1.81E-03
99.271,-1.84E-03
99.272,-1.86E-03
99.273,-1.89E-03
99.274,-1.91E-03
99.275,-1.94E-03
99.276,-1.96E-03
99.277,-1.99E-03
99.278,-2.01E-03
99.279,-2.03E-03
99.28,-2.06E-03
99.281,-2.08E-03
99.282,-2.11E-03
99.283,-2.13E-03
99.284,-2.15E-03
99.285,-2.18E-03
99.286,-2.20E-03
99.287,-2.22E-03
99.288,-0.002244608
99.289,-2.27E-03
99.29,-2.29E-03
99.291,-2.31E-03
99.292,-2.34E-03
99.293,-2.36E-03
99.294,-2.38E-03
99.295,-2.41E-03
99.296,-2.43E-03
99.297,-2.45E-03
99.298,-2.48E-03
99.299,-2.50E-03
99.3,-2.52E-03
99.301,-2.54E-03
99.302,-2.57E-03
99.303,-2.59E-03
99.304,-2.61E-03
99.305,-2.63E-03
99.306,-2.66E-03
99.307,-2.68E-03
99.308,-2.70E-03
99.309,-2.72E-03
99.31,-2.74E-03
99.311,-2.76E-03
99.312,-2.78E-03
99.313,-2.80E-03
99.314,-2.81E-03
99.315,-2.83E-03
99.316,-2.85E-03
99.317,-2.86E-03
99.318,-2.87E-03
99.319,-2.88E-03
99.32,-2.89E-03
99.321,-2.89E-03
99.322,-2.89E-03
99.323,-2.87E-03
99.324,-2.84E-03
99.325,-2.77E-03
99.326,-2.58E-03
99.327,-1.67E-03
99.328,3.97E-03
99.329,3.56E-03
99.33,3.39E-03
99.331,3.32E-03
99.332,3.29E-03
99.333,3.28E-03
99.334,3.28E-03
99.335,3.29E-03
99.336,3.30E-03
99.337,3.32E-03
99.338,3.34E-03
99.339,3.36E-03
99.34,3.38E-03
99.341,3.41E-03
99.342,3.44E-03
99.343,3.47E-03
99.344,3.50E-03
99.345,3.53E-03
99.346,3.56E-03
99.347,3.60E-03
99.348,3.63E-03
99.349,3.67E-03
99.35,3.71E-03
99.351,3.75E-03
99.352,3.79E-03
99.353,3.83E-03
99.354,3.88E-03
99.355,3.92E-03
99.356,3.97E-03
99.357,4.01E-03
99.358,4.05E-03
99.359,4.09E-03
99.36,4.13E-03
99.361,4.17E-03
99.362,4.20E-03
99.363,4.23E-03
99.364,4.26E-03
99.365,4.28E-03
99.366,4.30E-03
99.367,4.31E-03
99.368,4.32E-03
99.369,4.29E-03
99.37,3.91E-03
99.371,-4.61E-03
99.372,-4.53E-03
99.373,-4.52E-03
99.374,-4.52E-03
99.375,-4.53E-03
99.376,-4.54E-03
99.377,-4.55E-03
99.378,-4.56E-03
99.379,-4.57E-03
99.38,-4.57E-03
99.381,-4.58E-03
99.382,-4.58E-03
99.383,-4.59E-03
99.384,-4.59E-03
99.385,-4.59E-03
99.386,-4.59E-03
99.387,-4.59E-03
99.388,-4.60E-03
99.389,-4.60E-03
99.39,-4.61E-03
99.391,-4.62E-03
99.392,-4.63E-03
99.393,-4.65E-03
99.394,-4.68E-03
99.395,-4.71E-03
99.396,-4.75E-03
99.397,-0.004797607
99.398,-4.85E-03
99.399,-4.92E-03
99.4,-4.99E-03
99.401,-5.07E-03
99.402,-5.15E-03
99.403,-5.23E-03
99.404,-5.31E-03
99.405,-5.39E-03
99.406,-5.46E-03
99.407,-5.53E-03
99.408,-5.58E-03
99.409,-5.63E-03
99.41,-5.66E-03
99.411,-5.69E-03
99.412,-5.81E-03
99.413,-5.94E-03
99.414,-6.08E-03
99.415,-6.21E-03
99.416,-6.35E-03
99.417,-6.47E-03
99.418,-6.59E-03
99.419,-6.70E-03
99.42,-6.78E-03
99.421,-6.83E-03
99.422,-0.006832096
99.423,-6.78E-03
99.424,-6.66E-03
99.425,-6.50E-03
99.426,-6.32E-03
99.427,-6.15E-03
99.428,-6.08E-03
99.429,-6.06E-03
99.43,-6.04E-03
99.431,-5.99E-03
99.432,-5.92E-03
99.433,-5.84E-03
99.434,-5.78E-03
99.435,-5.84E-03
99.436,-5.96E-03
99.437,-6.11E-03
99.438,-6.25E-03
99.439,-0.006323442
99.44,-6.33E-03
99.441,-6.30E-03
99.442,-6.27E-03
99.443,-6.21E-03
99.444,-6.09E-03
99.445,-5.90E-03
99.446,-5.70E-03
99.447,-5.59E-03
99.448,-5.63E-03
99.449,-5.81E-03
99.45,-6.03E-03
99.451,-6.20E-03
99.452,-6.26E-03
99.453,-6.19E-03
99.454,-5.96E-03
99.455,-5.63E-03
99.456,-5.38E-03
99.457,-5.36E-03
99.458,-5.60E-03
99.459,-5.93E-03
99.46,-6.13E-03
99.461,-6.09E-03
99.462,-5.77E-03
99.463,-5.33E-03
99.464,-5.06E-03
99.465,-5.19E-03
99.466,-5.64E-03
99.467,-0.006023109
99.468,-5.90E-03
99.469,-5.44E-03
99.47,-4.89E-03
99.471,-4.76E-03
99.472,-5.29E-03
99.473,-5.85E-03
99.474,-5.72E-03
99.475,-5.13E-03
99.476,-4.48E-03
99.477,-4.60E-03
99.478,-5.44E-03
99.479,-5.69E-03
99.48,-5.11E-03
99.481,-4.23E-03
99.482,-4.25E-03
99.483,-5.24E-03
99.484,-5.48E-03
99.485,-4.67E-03
99.486,-3.72E-03
99.487,-4.31E-03
99.488,-5.37E-03
99.489,-4.93E-03
99.49,-3.56E-03
99.491,-3.59E-03
99.492,-5.13E-03
99.493,-4.93E-03
99.494,-3.19E-03
99.495,-3.13E-03
99.496,-5.17E-03
99.497,-4.66E-03
99.498,-2.30E-03
99.499,-3.35E-03
99.5,-5.37E-03
,4.81E-03
,-6.83E-03
,4.81E-03
