Structure Acceleration, RAO-Based Response
Line A: Structure Acceleration, RAO-Based Response - Global Z (Trimaran - Center of Gravity relative to Origin of Fixed Reference Axes (FRA)) [mm/s²]
,
*Time (s),Line A (mm/s?
95,-0.1173739
95.001,-0.117481613
95.002,-0.11758726
95.003,-0.117694261
95.004,-0.117800621
95.005,-0.117906653
95.006,-0.118011456
95.007,-0.118117903
95.008,-0.118222459
95.009,-0.118327727
95.01,-0.118431395
95.011,-0.118536045
95.012,-0.118638818
95.013,-0.118741977
95.014,-0.11884539
95.015,-0.118948461
95.016,-0.119050557
95.017,-0.119152115
95.018,-0.119253971
95.019,-0.119355587
95.02,-0.119456294
95.021,-0.119558543
95.022,-0.119658696
95.023,-0.119758071
95.024,-0.119857912
95.025,-0.119957294
95.026,-0.120056618
95.027,-0.120154793
95.028,-0.120253455
95.029,-0.120351811
95.03,-0.120449302
95.031,-0.120547476
95.032,-0.120643272
95.033,-0.120740944
95.034,-0.12083711
95.035,-0.120934077
95.036,-0.121030229
95.037,-0.12112617
95.038,-0.121219971
95.039,-0.121315788
95.04,-0.121409823
95.041,-0.121504701
95.042,-0.121597623
95.043,-0.121691926
95.044,-0.12178476
95.045,-0.121878169
95.046,-0.121970785
95.047,-0.122062535
95.048,-0.122154815
95.049,-0.122246929
95.05,-0.122338373
95.051,-0.122429992
95.052,-0.122520432
95.053,-0.12261048
95.054,-0.122700905
95.055,-0.122790472
95.056,-0.122879734
95.057,-0.122968602
95.058,-0.123057354
95.059,-0.123145786
95.06,-0.123234116
95.061,-0.123321908
95.062,-0.123409234
95.063,-0.123496517
95.064,-0.123583886
95.065,-0.123670063
95.066,-0.123756778
95.067,-0.123842357
95.068,-0.123927326
95.069,-0.124012455
95.07,-0.124097933
95.071,-0.124182348
95.072,-0.124267142
95.073,-0.124350394
95.074,-0.124433951
95.075,-0.12451665
95.076,-0.12460009
95.077,-0.124683414
95.078,-0.124765342
95.079,-0.124846949
95.08,-0.12492924
95.081,-0.125010512
95.082,-0.12509161
95.083,-0.125171806
95.084,-0.12525222
95.085,-0.12533195
95.086,-0.125412043
95.087,-0.125491701
95.088,-0.125570281
95.089,-0.125648556
95.09,-0.125727558
95.091,-0.125806662
95.092,-0.1258837
95.093,-0.125960723
95.094,-0.126037892
95.095,-0.12611493
95.096,-0.126191284
95.097,-0.126268002
95.098,-0.126342915
95.099,-0.126418701
95.1,-0.126493847
95.101,-0.126568732
95.102,-0.126642844
95.103,-0.126717074
95.104,-0.126790954
95.105,-0.126864732
95.106,-0.126938205
95.107,-0.127011415
95.108,-0.127083302
95.109,-0.127155683
95.11,-0.127227395
95.111,-0.127299354
95.112,-0.127370382
95.113,-0.127441133
95.114,-0.127511667
95.115,-0.127582651
95.116,-0.127652384
95.117,-0.127722247
95.118,-0.127790816
95.119,-0.127860287
95.12,-0.127929219
95.121,-0.127998064
95.122,-0.128065964
95.123,-0.128133106
95.124,-0.128200772
95.125,-0.128267828
95.126,-0.128334403
95.127,-0.128401443
95.128,-0.128466825
95.129,-0.128532745
95.13,-0.128598054
95.131,-0.128663407
95.132,-0.128728847
95.133,-0.128792817
95.134,-0.128856569
95.135,-0.128920714
95.136,-0.128984844
95.137,-0.129047432
95.138,-0.129110791
95.139,-0.129173073
95.14,-0.129234802
95.141,-0.129296954
95.142,-0.12935893
95.143,-0.129419641
95.144,-0.129480482
95.145,-0.129541208
95.146,-0.129602151
95.147,-0.129661974
95.148,-0.129721913
95.149,-0.129780121
95.15,-0.129839376
95.151,-0.129897904
95.152,-0.129956767
95.153,-0.130014741
95.154,-0.130071814
95.155,-0.130128799
95.156,-0.13018641
95.157,-0.130242857
95.158,-0.130298693
95.159,-0.130355009
95.16,-0.130411514
95.161,-0.130466142
95.162,-0.130521934
95.163,-0.130576882
95.164,-0.130630389
95.165,-0.130684391
95.166,-0.130738379
95.167,-0.130791697
95.168,-0.130845408
95.169,-0.130897606
95.17,-0.130950008
95.171,-0.131001594
95.172,-0.131053603
95.173,-0.131104563
95.174,-0.131155524
95.175,-0.131206762
95.176,-0.1312573
95.177,-0.131307141
95.178,-0.131357141
95.179,-0.131405832
95.18,-0.131455061
95.181,-0.131503708
95.182,-0.131552268
95.183,-0.131600187
95.184,-0.131646651
95.185,-0.131694193
95.186,-0.131740017
95.187,-0.131785739
95.188,-0.131830544
95.189,-0.13187452
95.19,-0.131918947
95.191,-0.131963578
95.192,-0.132008281
95.193,-0.132053494
95.194,-0.132096917
95.195,-0.132141839
95.196,-0.132186309
95.197,-0.13223046
95.198,-0.132274581
95.199,-0.132318033
95.2,-0.132362053
95.201,-0.132405359
95.202,-0.132448869
95.203,-0.132491288
95.204,-0.132533518
95.205,-0.132574642
95.206,-0.13261578
95.207,-0.132656904
95.208,-0.132697387
95.209,-0.132737332
95.21,-0.132777146
95.211,-0.132817135
95.212,-0.132857152
95.213,-0.132897039
95.214,-0.132936504
95.215,-0.132976784
95.216,-0.133017311
95.217,-0.133057445
95.218,-0.133096633
95.219,-0.133134992
95.22,-0.133172274
95.221,-0.133208901
95.222,-0.133244801
95.223,-0.133279158
95.224,-0.133311667
95.225,-0.133343608
95.226,-0.133373178
95.227,-0.133402224
95.228,-0.133431313
95.229,-0.133460984
95.23,-0.133491543
95.231,-0.133522975
95.232,-0.133555863
95.233,-0.133589812
95.234,-0.133625028
95.235,-0.133661641
95.236,-0.133699912
95.237,-0.133739843
95.238,-0.133777838
95.239,-0.133812835
95.24,-0.133840644
95.241,-0.133869791
95.242,-0.133901034
95.243,-0.133931782
95.244,-0.133955531
95.245,-0.133976166
95.246,-0.133996014
95.247,-0.134016824
95.248,-0.13403919
95.249,-0.134063244
95.25,-0.134087881
95.251,-0.134114394
95.252,-0.134142843
95.253,-0.13417138
95.254,-0.134201327
95.255,-0.134232701
95.256,-0.134264308
95.257,-0.134294576
95.258,-0.134323345
95.259,-0.134349437
95.26,-0.134373506
95.261,-0.134396294
95.262,-0.134417423
95.263,-0.134435584
95.264,-0.134453352
95.265,-0.134469024
95.266,-0.134485817
95.267,-0.134502538
95.268,-0.134519054
95.269,-0.134535716
95.27,-0.134552698
95.271,-0.134570131
95.272,-0.134586968
95.273,-0.134604226
95.274,-0.13462163
95.275,-0.134637899
95.276,-0.134654911
95.277,-0.134672286
95.278,-0.134689646
95.279,-0.134705915
95.28,-0.134721951
95.281,-0.134738948
95.282,-0.134755552
95.283,-0.134771617
95.284,-0.134787988
95.285,-0.134804141
95.286,-0.134818547
95.287,-0.134834248
95.288,-0.134849397
95.289,-0.134864604
95.29,-0.134878894
95.291,-0.134893198
95.292,-0.134907605
95.293,-0.134921589
95.294,-0.134935224
95.295,-0.13494835
95.296,-0.134961359
95.297,-0.134974282
95.298,-0.134986592
95.299,-0.134999253
95.3,-0.135011447
95.301,-0.135022754
95.302,-0.135034308
95.303,-0.135045499
95.304,-0.135056223
95.305,-0.135067254
95.306,-0.135077556
95.307,-0.135088732
95.308,-0.135098438
95.309,-0.135109251
95.31,-0.135118637
95.311,-0.135128634
95.312,-0.135138587
95.313,-0.135149152
95.314,-0.135159105
95.315,-0.13516999
95.316,-0.135179405
95.317,-0.135190945
95.318,-0.13520084
95.319,-0.135212365
95.32,-0.135223672
95.321,-0.13523559
95.322,-0.135248134
95.323,-0.135261915
95.324,-0.135275681
95.325,-0.13528968
95.326,-0.135304217
95.327,-0.135297916
95.328,-0.13529147
95.329,-0.135290611
95.33,-0.135293085
95.331,-0.135296272
95.332,-0.135300201
95.333,-0.135302951
95.334,-0.135305716
95.335,-0.135306298
95.336,-0.135306298
95.337,-0.1353056
95.338,-0.135303169
95.339,-0.135299386
95.34,-0.135294642
95.341,-0.135287861
95.342,-0.135280861
95.343,-0.13527245
95.344,-0.135263457
95.345,-0.135252791
95.346,-0.135241076
95.347,-0.135229871
95.348,-0.135217793
95.349,-0.135204726
95.35,-0.13519288
95.351,-0.135178911
95.352,-0.135167706
95.353,-0.135157024
95.354,-0.135148235
95.355,-0.135140799
95.356,-0.135133334
95.357,-0.135127601
95.358,-0.13512226
95.359,-0.135117662
95.36,-0.135114431
95.361,-0.135110226
95.362,-0.135107926
95.363,-0.135105976
95.364,-0.135105685
95.365,-0.135106398
95.366,-0.13510717
95.367,-0.135110604
95.368,-0.135114693
95.369,-0.135120485
95.37,-0.135128241
95.371,-0.13513655
95.372,-0.135149399
95.373,-0.135161041
95.374,-0.135123657
95.375,-0.135088092
95.376,-0.135053589
95.377,-0.135022725
95.378,-0.134993839
95.379,-0.134967282
95.38,-0.134943417
95.381,-0.134921313
95.382,-0.134901115
95.383,-0.134883405
95.384,-0.134868329
95.385,-0.13485513
95.386,-0.134843038
95.387,-0.134833637
95.388,-0.134824732
95.389,-0.134817135
95.39,-0.134810136
95.391,-0.134801274
95.392,-0.134793008
95.393,-0.134781192
95.394,-0.134767062
95.395,-0.134749949
95.396,-0.134728529
95.397,-0.134704154
95.398,-0.134678048
95.399,-0.134652553
95.4,-0.134629387
95.401,-0.134611255
95.402,-0.134602597
95.403,-0.134605405
95.404,-0.134623551
95.405,-0.134658345
95.406,-0.134657414
95.407,-0.134574395
95.408,-0.134506874
95.409,-0.134463844
95.41,-0.134459202
95.411,-0.134525384
95.412,-0.134716465
95.413,-0.135094786
95.414,-0.135300157
95.415,-0.135512091
95.416,-0.135766342
95.417,-0.135983762
95.418,-0.136129704
95.419,-0.136200004
95.42,-0.136194518
95.421,-0.136109433
95.422,-0.135935305
95.423,-0.135659648
95.424,-0.135309776
95.425,-0.13500826
95.426,-0.134531481
95.427,-0.134172835
95.428,-0.134056638
95.429,-0.13402522
95.43,-0.134051603
95.431,-0.134223737
95.432,-0.134578688
95.433,-0.134784306
95.434,-0.134804592
95.435,-0.13475398
95.436,-0.134608388
95.437,-0.134158632
95.438,-0.133878289
95.439,-0.133779395
95.44,-0.133770285
95.441,-0.133855909
95.442,-0.13401793
95.443,-0.134103
95.444,-0.134007409
95.445,-0.133793204
95.446,-0.133622481
95.447,-0.133549445
95.448,-0.133539026
95.449,-0.133572205
95.45,-0.133581474
95.451,-0.13351666
95.452,-0.133424895
95.453,-0.133357826
95.454,-0.133321359
95.455,-0.133296737
95.456,-0.133261696
95.457,-0.133217749
95.458,-0.133180904
95.459,-0.133146415
95.46,-0.133105306
95.461,-0.133064837
95.462,-0.133030408
95.463,-0.132999121
95.464,-0.132970308
95.465,-0.132927511
95.466,-0.132908259
95.467,-0.132863745
95.468,-0.132825386
95.469,-0.132785557
95.47,-0.132781352
95.471,-0.132739646
95.472,-0.132679881
95.473,-0.132639165
95.474,-0.132653367
95.475,-0.132586618
95.476,-0.13254481
95.477,-0.132488902
95.478,-0.132510118
95.479,-0.132416302
95.48,-0.132424495
95.481,-0.132346599
95.482,-0.132295041
95.483,-0.132377521
95.484,-0.132218091
95.485,-0.132182264
95.486,-0.132576068
95.487,-0.132121451
95.488,-0.132071305
95.489,-0.132899309
95.49,-0.131980079
95.491,-0.132023226
95.492,-0.131898385
95.493,-0.131859095
95.494,-0.132733971
95.495,-0.132626068
95.496,-0.131721128
95.497,-0.134164758
95.498,-0.133091729
95.499,-0.134006812
95.5,-0.133990907
95.501,-0.13191413
95.502,-0.133510257
95.503,-0.132359681
95.504,-0.131445544
95.505,-0.134063303
95.506,-0.133163951
95.507,-0.133722162
95.508,-0.133948561
95.509,-0.132030589
95.51,-0.133493319
95.511,-0.13139566
95.512,-0.131260327
95.513,-0.133011199
95.514,-0.131105393
95.515,-0.133712689
95.516,-0.133304347
95.517,-0.133259164
95.518,-0.133325477
95.519,-0.132260058
95.52,-0.133091657
95.521,-0.130592729
95.522,-0.130941698
95.523,-0.13144991
95.524,-0.130482149
95.525,-0.1324076
95.526,-0.130846616
95.527,-0.133128255
95.528,-0.132753645
95.529,-0.132789079
95.53,-0.132970352
95.531,-0.132512534
95.532,-0.132741159
95.533,-0.131613124
95.534,-0.132359928
95.535,-0.129856082
95.536,-0.130528118
95.537,-0.129956694
95.538,-0.129810796
95.539,-0.130479733
95.54,-0.129636275
95.541,-0.131186214
95.542,-0.130365239
95.543,-0.132043744
95.544,-0.131667635
95.545,-0.131839814
95.546,-0.131769048
95.547,-0.132023953
95.548,-0.13154278
95.549,-0.131970053
95.55,-0.131787165
95.551,-0.131823836
95.552,-0.131804569
95.553,-0.131718189
95.554,-0.131692112
95.555,-0.131498731
95.556,-0.131578505
95.557,-0.131151872
95.558,-0.131397857
95.559,-0.131057153
95.56,-0.13104151
95.561,-0.130774453
95.562,-0.131233683
95.563,-0.130340763
95.564,-0.130749773
95.565,-0.12832541
95.566,-0.128182655
95.567,-0.128594533
95.568,-0.128001571
95.569,-0.128632368
95.57,-0.127894527
95.571,-0.127993146
95.572,-0.127790583
95.573,-0.12801541
95.574,-0.127636042
95.575,-0.127683379
95.576,-0.12751238
95.577,-0.127460517
95.578,-0.127785417
95.579,-0.127318388
95.58,-0.127286694
95.581,-0.127198495
95.582,-0.127143881
95.583,-0.127129562
95.584,-0.127109743
95.585,-0.127026884
95.586,-0.126950748
95.587,-0.126892148
95.588,-0.126762272
95.589,-0.126688057
95.59,-0.126668601
95.591,-0.126554718
95.592,-0.126522296
95.593,-0.126613275
95.594,-0.126433384
95.595,-0.126683808
95.596,-0.126250248
95.597,-0.126184779
95.598,-0.126170446
95.599,-0.126057843
95.6,-0.126098312
95.601,-0.127575215
95.602,-0.128348271
95.603,-0.128623462
95.604,-0.127985724
95.605,-0.12725628
95.606,-0.125717255
95.607,-0.127537205
95.608,-0.127839274
95.609,-0.128192725
95.61,-0.127688691
95.611,-0.125474457
95.612,-0.125155741
95.613,-0.1253058
95.614,-0.125055347
95.615,-0.124926955
95.616,-0.125632039
95.617,-0.125229068
95.618,-0.12479318
95.619,-0.125598192
95.62,-0.125449864
95.621,-0.125938765
95.622,-0.125669365
95.623,-0.127005493
95.624,-0.125985098
95.625,-0.127005449
95.626,-0.126734885
95.627,-0.126972998
95.628,-0.126855404
95.629,-0.12682729
95.63,-0.126744926
95.631,-0.126672778
95.632,-0.126443396
95.633,-0.126153682
95.634,-0.125926017
95.635,-0.126378451
95.636,-0.12546443
95.637,-0.12545471
95.638,-0.123351216
95.639,-0.123680758
95.64,-0.123876991
95.641,-0.125737541
95.642,-0.125338061
95.643,-0.125583188
95.644,-0.124065511
95.645,-0.124746308
95.646,-0.123637248
95.647,-0.124958693
95.648,-0.123099206
95.649,-0.125249411
95.65,-0.122577199
95.651,-0.124920844
95.652,-0.124083614
95.653,-0.124637168
95.654,-0.122803947
95.655,-0.124513506
95.656,-0.124644881
95.657,-0.124692029
95.658,-0.12438219
95.659,-0.124554877
95.66,-0.124109138
95.661,-0.12435668
95.662,-0.124299506
95.663,-0.124069556
95.664,-0.124017126
95.665,-0.121916368
95.666,-0.123097998
95.667,-0.123027276
95.668,-0.123343096
95.669,-0.120804259
95.67,-0.123525213
95.671,-0.120697652
95.672,-0.123305232
95.673,-0.12148176
95.674,-0.12186962
95.675,-0.121542267
95.676,-0.123183971
95.677,-0.122725658
95.678,-0.123008504
95.679,-0.122751881
95.68,-0.122829631
95.681,-0.122674188
95.682,-0.122510086
95.683,-0.119710545
95.684,-0.119585864
95.685,-0.120405988
95.686,-0.121832825
95.687,-0.121913952
95.688,-0.12047786
95.689,-0.121882535
95.69,-0.120496938
95.691,-0.121415113
95.692,-0.121182864
95.693,-0.12106121
95.694,-0.119106517
95.695,-0.120812423
95.696,-0.119562581
95.697,-0.121036988
95.698,-0.120962068
95.699,-0.121242127
,-0.136200004
