Structure Acceleration, RAO-Based Response
Line A: Structure Acceleration, RAO-Based Response - Global Z (Trimaran - Center of Gravity relative to Origin of Fixed Reference Axes (FRA)) [mm/s²]
,
*Time (s),Line A (mm/s?
93.5,-7.24E-02
93.501,-7.25E-02
93.502,-7.25E-02
93.503,-7.26E-02
93.504,-0.072727766
93.505,-7.28E-02
93.506,-7.29E-02
93.507,-7.30E-02
93.508,-7.31E-02
93.509,-7.32E-02
93.51,-7.33E-02
93.511,-7.34E-02
93.512,-7.35E-02
93.513,-7.35E-02
93.514,-7.36E-02
93.515,-7.37E-02
93.516,-7.38E-02
93.517,-7.39E-02
93.518,-7.40E-02
93.519,-7.41E-02
93.52,-7.42E-02
93.521,-7.43E-02
93.522,-7.44E-02
93.523,-7.44E-02
93.524,-7.45E-02
93.525,-7.46E-02
93.526,-7.47E-02
93.527,-7.48E-02
93.528,-7.49E-02
93.529,-7.50E-02
93.53,-7.51E-02
93.531,-7.51E-02
93.532,-7.52E-02
93.533,-7.53E-02
93.534,-7.54E-02
93.535,-7.55E-02
93.536,-7.56E-02
93.537,-7.57E-02
93.538,-0.075738768
93.539,-7.58E-02
93.54,-7.59E-02
93.541,-7.60E-02
93.542,-7.61E-02
93.543,-7.62E-02
93.544,-7.62E-02
93.545,-7.63E-02
93.546,-7.64E-02
93.547,-7.65E-02
93.548,-7.66E-02
93.549,-0.076660857
93.55,-7.67E-02
93.551,-7.68E-02
93.552,-7.69E-02
93.553,-7.70E-02
93.554,-7.71E-02
93.555,-7.72E-02
93.556,-7.72E-02
93.557,-7.73E-02
93.558,-7.74E-02
93.559,-7.75E-02
93.56,-7.76E-02
93.561,-7.76E-02
93.562,-7.77E-02
93.563,-7.78E-02
93.564,-7.79E-02
93.565,-7.80E-02
93.566,-7.80E-02
93.567,-7.81E-02
93.568,-7.82E-02
93.569,-7.83E-02
93.57,-7.83E-02
93.571,-7.84E-02
93.572,-7.85E-02
93.573,-7.86E-02
93.574,-7.87E-02
93.575,-7.87E-02
93.576,-7.88E-02
93.577,-7.89E-02
93.578,-7.90E-02
93.579,-7.90E-02
93.58,-7.91E-02
93.581,-7.92E-02
93.582,-7.93E-02
93.583,-7.93E-02
93.584,-7.94E-02
93.585,-7.95E-02
93.586,-7.96E-02
93.587,-7.96E-02
93.588,-7.97E-02
93.589,-7.98E-02
93.59,-7.99E-02
93.591,-7.99E-02
93.592,-8.00E-02
93.593,-8.01E-02
93.594,-8.02E-02
93.595,-8.02E-02
93.596,-8.03E-02
93.597,-8.04E-02
93.598,-8.05E-02
93.599,-8.05E-02
93.6,-8.06E-02
93.601,-8.07E-02
93.602,-8.07E-02
93.603,-8.08E-02
93.604,-8.09E-02
93.605,-8.10E-02
93.606,-8.10E-02
93.607,-8.11E-02
93.608,-8.12E-02
93.609,-8.12E-02
93.61,-8.13E-02
93.611,-8.14E-02
93.612,-8.14E-02
93.613,-8.15E-02
93.614,-8.16E-02
93.615,-8.17E-02
93.616,-8.17E-02
93.617,-8.18E-02
93.618,-8.19E-02
93.619,-8.19E-02
93.62,-8.20E-02
93.621,-8.21E-02
93.622,-8.21E-02
93.623,-8.22E-02
93.624,-8.23E-02
93.625,-0.08232877
93.626,-8.24E-02
93.627,-8.25E-02
93.628,-8.25E-02
93.629,-8.26E-02
93.63,-8.27E-02
93.631,-8.27E-02
93.632,-8.28E-02
93.633,-8.29E-02
93.634,-0.082919309
93.635,-8.30E-02
93.636,-0.083047584
93.637,-8.31E-02
93.638,-8.32E-02
93.639,-8.32E-02
93.64,-8.33E-02
93.641,-8.34E-02
93.642,-8.34E-02
93.643,-8.35E-02
93.644,-8.36E-02
93.645,-8.36E-02
93.646,-8.37E-02
93.647,-8.37E-02
93.648,-8.38E-02
93.649,-8.39E-02
93.65,-8.39E-02
93.651,-8.40E-02
93.652,-8.40E-02
93.653,-8.41E-02
93.654,-8.42E-02
93.655,-8.42E-02
93.656,-8.43E-02
93.657,-8.43E-02
93.658,-8.44E-02
93.659,-8.45E-02
93.66,-0.084525513
93.661,-8.46E-02
93.662,-8.46E-02
93.663,-8.47E-02
93.664,-8.48E-02
93.665,-0.084817766
93.666,-8.49E-02
93.667,-8.49E-02
93.668,-8.50E-02
93.669,-8.50E-02
93.67,-0.085103944
93.671,-8.52E-02
93.672,-8.52E-02
93.673,-8.53E-02
93.674,-8.53E-02
93.675,-8.54E-02
93.676,-8.54E-02
93.677,-8.55E-02
93.678,-0.085551139
93.679,-8.56E-02
93.68,-8.57E-02
93.681,-8.57E-02
93.682,-8.58E-02
93.683,-8.58E-02
93.684,-8.59E-02
93.685,-0.085929234
93.686,-8.60E-02
93.687,-8.60E-02
93.688,-8.61E-02
93.689,-8.61E-02
93.69,-8.62E-02
93.691,-8.62E-02
93.692,-8.63E-02
93.693,-8.63E-02
93.694,-8.64E-02
93.695,-8.64E-02
93.696,-8.65E-02
93.697,-8.65E-02
93.698,-0.086600034
93.699,-8.67E-02
93.7,-8.67E-02
93.701,-8.68E-02
93.702,-8.68E-02
93.703,-8.69E-02
93.704,-8.69E-02
93.705,-8.70E-02
93.706,-8.70E-02
93.707,-8.71E-02
93.708,-8.71E-02
93.709,-8.72E-02
93.71,-8.72E-02
93.711,-0.087248751
93.712,-8.73E-02
93.713,-8.73E-02
93.714,-8.74E-02
93.715,-8.74E-02
93.716,-8.75E-02
93.717,-8.75E-02
93.718,-0.087590997
93.719,-8.76E-02
93.72,-8.77E-02
93.721,-8.77E-02
93.722,-8.78E-02
93.723,-8.78E-02
93.724,-8.79E-02
93.725,-8.79E-02
93.726,-8.80E-02
93.727,-0.087990404
93.728,-8.80E-02
93.729,-8.81E-02
93.73,-8.81E-02
93.731,-8.82E-02
93.732,-8.82E-02
93.733,-8.82E-02
93.734,-8.83E-02
93.735,-8.83E-02
93.736,-8.84E-02
93.737,-8.84E-02
93.738,-8.85E-02
93.739,-8.85E-02
93.74,-8.86E-02
93.741,-8.86E-02
93.742,-8.87E-02
93.743,-8.87E-02
93.744,-8.87E-02
93.745,-8.88E-02
93.746,-0.088804642
93.747,-8.88E-02
93.748,-8.89E-02
93.749,-8.89E-02
93.75,-8.90E-02
93.751,-8.90E-02
93.752,-8.90E-02
93.753,-8.91E-02
93.754,-0.089116016
93.755,-8.92E-02
93.756,-8.92E-02
93.757,-8.92E-02
93.758,-8.93E-02
93.759,-0.089328722
93.76,-8.94E-02
93.761,-8.94E-02
93.762,-8.94E-02
93.763,-8.95E-02
93.764,-8.95E-02
93.765,-8.95E-02
93.766,-8.96E-02
93.767,-8.96E-02
93.768,-8.96E-02
93.769,-0.089665744
93.77,-8.97E-02
93.771,-8.97E-02
93.772,-8.98E-02
93.773,-0.089796886
93.774,-8.98E-02
93.775,-8.99E-02
93.776,-8.99E-02
93.777,-8.99E-02
93.778,-9.00E-02
93.779,-9.00E-02
93.78,-9.00E-02
93.781,-9.01E-02
93.782,-9.01E-02
93.783,-9.01E-02
93.784,-9.02E-02
93.785,-9.02E-02
93.786,-9.02E-02
93.787,-9.03E-02
93.788,-9.03E-02
93.789,-9.03E-02
93.79,-9.04E-02
93.791,-9.04E-02
93.792,-9.04E-02
93.793,-9.04E-02
93.794,-9.05E-02
93.795,-9.05E-02
93.796,-9.05E-02
93.797,-9.06E-02
93.798,-0.090597357
93.799,-9.06E-02
93.8,-9.07E-02
93.801,-9.07E-02
93.802,-0.090717505
93.803,-9.07E-02
93.804,-9.08E-02
93.805,-9.08E-02
93.806,-0.090833732
93.807,-9.09E-02
93.808,-9.09E-02
93.809,-9.09E-02
93.81,-9.10E-02
93.811,-9.10E-02
93.812,-9.10E-02
93.813,-9.10E-02
93.814,-9.11E-02
93.815,-9.11E-02
93.816,-9.11E-02
93.817,-9.12E-02
93.818,-9.12E-02
93.819,-0.091215108
93.82,-9.12E-02
93.821,-9.13E-02
93.822,-9.13E-02
93.823,-9.13E-02
93.824,-9.14E-02
93.825,-0.091407033
93.826,-0.091438545
93.827,-9.15E-02
93.828,-9.15E-02
93.829,-9.15E-02
93.83,-9.15E-02
93.831,-9.15E-02
93.832,-9.16E-02
93.833,-0.09158883
93.834,-9.16E-02
93.835,-9.16E-02
93.836,-9.17E-02
93.837,-9.17E-02
93.838,-0.09169853
93.839,-0.091717615
93.84,-9.17E-02
93.841,-9.18E-02
93.842,-9.18E-02
93.843,-9.18E-02
93.844,-9.18E-02
93.845,-9.18E-02
93.846,-9.18E-02
93.847,-9.18E-02
93.848,-9.18E-02
93.849,-9.19E-02
93.85,-9.19E-02
93.851,-9.19E-02
93.852,-9.19E-02
93.853,-9.19E-02
93.854,-9.19E-02
93.855,-0.091932961
93.856,-9.19E-02
93.857,-9.20E-02
93.858,-9.20E-02
93.859,-0.092004491
93.86,-9.20E-02
93.861,-9.20E-02
93.862,-9.21E-02
93.863,-9.21E-02
93.864,-0.092112532
93.865,-0.092137539
93.866,-9.22E-02
93.867,-9.22E-02
93.868,-9.22E-02
93.869,-9.22E-02
93.87,-0.092276452
93.871,-9.23E-02
93.872,-9.23E-02
93.873,-9.24E-02
93.874,-0.092365088
93.875,-9.24E-02
93.876,-9.24E-02
93.877,-9.24E-02
93.878,-9.23E-02
93.879,-9.23E-02
93.88,-9.23E-02
93.881,-9.24E-02
93.882,-0.092356713
93.883,-0.092362221
93.884,-0.092369199
93.885,-9.24E-02
93.886,-9.24E-02
93.887,-9.24E-02
93.888,-9.24E-02
93.889,-9.24E-02
93.89,-9.24E-02
93.891,-9.24E-02
93.892,-9.25E-02
93.893,-0.092477145
93.894,-0.092488932
93.895,-9.25E-02
93.896,-9.25E-02
93.897,-9.25E-02
93.898,-9.25E-02
93.899,-0.092538794
93.9,-9.26E-02
93.901,-9.26E-02
93.902,-9.26E-02
93.903,-9.26E-02
93.904,-9.27E-02
93.905,-9.27E-02
93.906,-9.28E-02
93.907,-9.27E-02
93.908,-9.27E-02
93.909,-9.26E-02
93.91,-9.26E-02
93.911,-0.09268921
93.912,-9.28E-02
93.913,-9.30E-02
93.914,-9.31E-02
93.915,-9.32E-02
93.916,-9.32E-02
93.917,-9.33E-02
93.918,-9.34E-02
93.919,-9.34E-02
93.92,-9.35E-02
93.921,-9.34E-02
93.922,-9.34E-02
93.923,-9.33E-02
93.924,-9.32E-02
93.925,-9.32E-02
93.926,-9.30E-02
93.927,-9.28E-02
93.928,-9.28E-02
93.929,-9.28E-02
93.93,-9.28E-02
93.931,-9.29E-02
93.932,-9.31E-02
93.933,-9.32E-02
93.934,-0.093231734
93.935,-9.32E-02
93.936,-9.32E-02
93.937,-9.30E-02
93.938,-9.28E-02
93.939,-9.28E-02
93.94,-9.28E-02
93.941,-9.29E-02
93.942,-9.30E-02
93.943,-9.31E-02
93.944,-9.30E-02
93.945,-9.29E-02
93.946,-9.29E-02
93.947,-9.28E-02
93.948,-0.092849979
93.949,-9.29E-02
93.95,-9.29E-02
93.951,-0.092886716
93.952,-9.29E-02
93.953,-9.28E-02
93.954,-9.28E-02
93.955,-9.28E-02
93.956,-9.28E-02
93.957,-9.28E-02
93.958,-9.28E-02
93.959,-9.28E-02
93.96,-9.28E-02
93.961,-9.28E-02
93.962,-9.28E-02
93.963,-9.28E-02
93.964,-9.28E-02
93.965,-9.28E-02
93.966,-9.29E-02
93.967,-0.092847396
93.968,-0.092827388
93.969,-9.28E-02
93.97,-9.29E-02
93.971,-9.29E-02
93.972,-9.28E-02
93.973,-0.092815222
93.974,-9.29E-02
93.975,-9.28E-02
93.976,-9.28E-02
93.977,-9.28E-02
93.978,-9.29E-02
93.979,-9.28E-02
93.98,-9.28E-02
93.981,-9.28E-02
93.982,-9.28E-02
93.983,-9.28E-02
93.984,-9.28E-02
93.985,-9.28E-02
93.986,-9.30E-02
93.987,-0.092759401
93.988,-9.28E-02
93.989,-9.32E-02
93.99,-9.27E-02
93.991,-9.28E-02
93.992,-9.27E-02
93.993,-9.27E-02
93.994,-9.32E-02
93.995,-9.32E-02
93.996,-9.27E-02
93.997,-0.093455434
93.998,-9.35E-02
93.999,-9.36E-02
94,-9.35E-02
94.001,-9.27E-02
94.002,-9.34E-02
94.003,-9.31E-02
94.004,-9.35E-02
94.005,-0.093152055
94.006,-9.33E-02
94.007,-9.35E-02
94.008,-9.31E-02
94.009,-9.26E-02
94.01,-9.35E-02
94.011,-9.31E-02
94.012,-9.34E-02
94.013,-9.34E-02
94.014,-9.31E-02
94.015,-9.35E-02
94.016,-0.092527327
94.017,-9.27E-02
94.018,-0.093371571
94.019,-9.30E-02
94.02,-9.34E-02
94.021,-9.33E-02
94.022,-9.32E-02
94.023,-0.093169765
94.024,-9.29E-02
94.025,-9.33E-02
94.026,-9.25E-02
94.027,-9.26E-02
94.028,-9.29E-02
94.029,-9.24E-02
94.03,-9.33E-02
94.031,-9.33E-02
94.032,-9.33E-02
94.033,-9.32E-02
94.034,-9.33E-02
94.035,-9.30E-02
94.036,-9.33E-02
94.037,-9.32E-02
94.038,-9.28E-02
94.039,-9.22E-02
94.04,-9.28E-02
94.041,-9.22E-02
94.042,-9.27E-02
94.043,-0.092186288
94.044,-9.32E-02
94.045,-0.093135837
94.046,-9.31E-02
94.047,-9.31E-02
94.048,-0.092994662
94.049,-9.28E-02
94.05,-9.26E-02
94.051,-0.092544942
94.052,-9.20E-02
94.053,-0.092384304
94.054,-9.20E-02
94.055,-9.22E-02
94.056,-9.24E-02
94.057,-9.25E-02
94.058,-9.28E-02
94.059,-9.29E-02
94.06,-9.29E-02
94.061,-9.28E-02
94.062,-0.092903443
94.063,-9.29E-02
94.064,-9.27E-02
94.065,-9.26E-02
94.066,-9.28E-02
94.067,-9.28E-02
94.068,-9.27E-02
94.069,-9.24E-02
94.07,-9.17E-02
94.071,-9.27E-02
94.072,-9.28E-02
94.073,-9.23E-02
94.074,-9.17E-02
94.075,-9.23E-02
94.076,-9.27E-02
94.077,-9.25E-02
94.078,-9.16E-02
94.079,-9.15E-02
94.08,-9.20E-02
94.081,-9.25E-02
94.082,-9.26E-02
94.083,-9.25E-02
94.084,-9.24E-02
94.085,-9.25E-02
94.086,-9.24E-02
94.087,-0.091875932
94.088,-9.16E-02
94.089,-9.16E-02
94.09,-9.17E-02
94.091,-9.19E-02
94.092,-9.17E-02
94.093,-9.22E-02
94.094,-9.23E-02
94.095,-9.23E-02
94.096,-9.22E-02
94.097,-9.22E-02
94.098,-9.23E-02
94.099,-9.21E-02
94.1,-0.09222293
,-9.36E-02
