Structure Acceleration, RAO-Based Response
Line A: Structure Acceleration, RAO-Based Response - Global Z (Trimaran - Center of Gravity relative to Origin of Fixed Reference Axes (FRA)) [mm/s²]
,
*Time (s),Line A (mm/s?
99.8,-0.219523761
99.801,-0.219669702
99.802,-0.21981218
99.803,-0.219954643
99.804,-0.220098969
99.805,-0.220241389
99.806,-0.220383066
99.80701,-0.22052569
99.80801,-0.220666378
99.80901,-0.220810267
99.81001,-0.220950285
99.811,-0.221090857
99.812,-0.221228052
99.813,-0.221371636
99.814,-0.22151148
99.815,-0.221649112
99.816,-0.221790615
99.817,-0.221928305
99.818,-0.222064104
99.819,-0.222203584
99.82,-0.222342685
99.82101,-0.222481307
99.82201,-0.222616974
99.82301,-0.222752118
99.82401,-0.222889212
99.825,-0.223026102
99.826,-0.223160911
99.827,-0.223296098
99.828,-0.223432377
99.829,-0.223568175
99.83,-0.223700903
99.831,-0.223832758
99.832,-0.223970535
99.833,-0.22410274
99.834,-0.224232717
99.83501,-0.224367584
99.83601,-0.224499978
99.83701,-0.224633462
99.83801,-0.224763236
99.839,-0.224893782
99.84,-0.225028576
99.841,-0.22515707
99.842,-0.225287149
99.843,-0.225415846
99.844,-0.225546319
99.845,-0.225677402
99.846,-0.225804164
99.847,-0.22593161
99.848,-0.22606198
99.84901,-0.2261911
99.85001,-0.226317468
99.85101,-0.226442949
99.85201,-0.226571632
99.853,-0.226697564
99.854,-0.226824588
99.855,-0.226947392
99.856,-0.227076191
99.857,-0.227200551
99.858,-0.227324359
99.859,-0.227447003
99.86,-0.22757244
99.861,-0.22769683
99.862,-0.22781844
99.86301,-0.227941811
99.86401,-0.228067802
99.86501,-0.228188801
99.866,-0.22830948
99.867,-0.228431119
99.868,-0.22855353
99.869,-0.228673132
99.87,-0.228793331
99.871,-0.228911973
99.872,-0.229034733
99.873,-0.229152123
99.874,-0.229271114
99.875,-0.229389101
99.876,-0.229508325
99.87701,-0.229627214
99.87801,-0.22974491
99.87901,-0.229861704
99.88,-0.229980273
99.881,-0.230095233
99.882,-0.230210382
99.883,-0.23032543
99.884,-0.230443387
99.885,-0.230557824
99.886,-0.230671474
99.887,-0.230785488
99.888,-0.230900943
99.889,-0.231014274
99.89,-0.231126993
99.89101,-0.231238053
99.89201,-0.231353479
99.89301,-0.231466664
99.894,-0.231576356
99.895,-0.23168698
99.896,-0.231800208
99.897,-0.231908605
99.898,-0.23201853
99.899,-0.232128848
99.9,-0.232239632
99.901,-0.232347258
99.902,-0.232454753
99.903,-0.23256641
99.904,-0.232674472
99.90501,-0.232781909
99.90601,-0.23288872
99.90701,-0.232993611
99.908,-0.233103157
99.909,-0.233208659
99.91,-0.23331237
99.911,-0.233419967
99.912,-0.233524857
99.913,-0.23362803
99.914,-0.233733575
99.915,-0.2338388
99.916,-0.233939762
99.917,-0.234042556
99.918,-0.234145104
99.91901,-0.234248
99.92001,-0.234352308
99.92101,-0.234452295
99.922,-0.234552848
99.923,-0.234655628
99.924,-0.234755367
99.925,-0.234855572
99.926,-0.234953346
99.927,-0.235054089
99.928,-0.235153479
99.929,-0.235250787
99.93,-0.235348416
99.931,-0.235447456
99.93201,-0.235545231
99.93301,-0.235642598
99.93401,-0.235738393
99.93501,-0.23583592
99.936,-0.235930551
99.937,-0.236025779
99.938,-0.236118925
99.939,-0.236215856
99.94,-0.236310196
99.941,-0.236403182
99.942,-0.236495165
99.943,-0.236590713
99.944,-0.236684064
99.945,-0.236774533
99.94601,-0.236866472
99.94701,-0.23695975
99.94801,-0.237051645
99.94901,-0.237140834
99.95,-0.237230764
99.951,-0.237321001
99.952,-0.237410713
99.953,-0.237499582
99.954,-0.237586966
99.955,-0.23767649
99.956,-0.237763379
99.957,-0.237850123
99.958,-0.237938133
99.959,-0.238024542
99.96001,-0.238112058
99.96101,-0.23819739
99.96201,-0.238282693
99.96301,-0.238369976
99.964,-0.23845282
99.965,-0.238537687
99.966,-0.238621215
99.967,-0.23870515
99.968,-0.238788343
99.969,-0.238870751
99.97,-0.238950975
99.971,-0.239035086
99.972,-0.239116314
99.973,-0.239194938
99.97401,-0.239276429
99.97501,-0.239357978
99.97601,-0.239437795
99.97701,-0.239515808
99.978,-0.239594126
99.979,-0.239674613
99.98,-0.239751491
99.981,-0.239827437
99.982,-0.239903995
99.983,-0.239981484
99.984,-0.240058362
99.985,-0.24013131
99.986,-0.240208014
99.987,-0.240280351
99.98801,-0.240352922
99.98901,-0.240424619
99.99001,-0.240497378
99.991,-0.240570997
99.992,-0.240643858
99.993,-0.240716006
99.994,-0.240786991
99.995,-0.240861715
99.996,-0.240934489
99.997,-0.241005488
99.998,-0.241079309
99.999,-0.241149843
100,-0.241221307
100.001,-0.241290021
100.00201,-0.241359739
100.00301,-0.241431248
100.00401,-0.241499409
100.005,-0.241567846
100.006,-0.241634683
100.007,-0.241703252
100.008,-0.241770424
100.009,-0.241836315
100.01,-0.241905174
100.011,-0.241970789
100.012,-0.24203588
100.013,-0.242101189
100.014,-0.24216708
100.015,-0.242230832
100.01601,-0.242295442
100.01701,-0.242355076
100.01801,-0.242414768
100.019,-0.242477035
100.02,-0.242533468
100.021,-0.242592971
100.022,-0.24265323
100.023,-0.242711059
100.024,-0.242773021
100.025,-0.242833674
100.026,-0.242898197
100.027,-0.242961047
100.028,-0.243025133
100.029,-0.243088711
100.03001,-0.243148126
100.03101,-0.243209317
100.03201,-0.243267117
100.033,-0.243318136
100.034,-0.243370494
100.035,-0.243416711
100.036,-0.243460498
100.037,-0.2435067
100.038,-0.24355526
100.039,-0.243603747
100.04,-0.243657152
100.041,-0.243710296
100.042,-0.243767543
100.043,-0.243827235
100.04401,-0.243888862
100.04501,-0.243952469
100.04601,-0.2440143
100.047,-0.244068564
100.048,-0.24411449
100.049,-0.244160969
100.05,-0.244215888
100.051,-0.244266208
100.052,-0.244307303
100.053,-0.244344119
100.054,-0.244380557
100.055,-0.24441359
100.056,-0.24444767
100.05701,-0.244483992
100.05801,-0.244526018
100.05901,-0.244564872
100.06001,-0.244605995
100.061,-0.244650029
100.062,-0.244697381
100.063,-0.244742696
100.064,-0.244791212
100.065,-0.244839874
100.066,-0.244892843
100.067,-0.244939845
100.068,-0.244986906
100.069,-0.245034404
100.07,-0.245083851
100.07101,-0.245130825
100.07201,-0.245177769
100.07301,-0.245221803
100.07401,-0.245267933
100.075,-0.245304342
100.076,-0.24533688
100.077,-0.24536869
100.078,-0.245401723
100.079,-0.245434261
100.08,-0.245466683
100.081,-0.24549666
100.082,-0.245531322
100.083,-0.245561358
100.084,-0.245591713
100.08501,-0.245623349
100.08601,-0.245654723
100.08701,-0.245685689
100.08801,-0.245716597
100.089,-0.245744886
100.09,-0.24577658
100.091,-0.245805597
100.092,-0.245833711
100.093,-0.245864037
100.094,-0.245891424
100.095,-0.245920091
100.096,-0.245945354
100.097,-0.245975185
100.098,-0.246001582
100.09901,-0.24602894
100.10001,-0.246053591
100.10101,-0.24607894
100.10201,-0.24610426
100.103,-0.246127485
100.104,-0.246151845
100.105,-0.246175478
100.106,-0.246197887
100.107,-0.246218813
100.108,-0.246240641
100.109,-0.246262061
100.11,-0.246280921
100.111,-0.246299809
100.112,-0.246315554
100.11301,-0.246333861
100.11401,-0.246351789
100.11501,-0.246366224
100.116,-0.24638258
100.117,-0.246398791
100.118,-0.246410549
100.119,-0.246425305
100.12,-0.246438431
100.121,-0.246451673
100.122,-0.246464129
100.123,-0.246478012
100.124,-0.246491778
100.125,-0.246508571
100.126,-0.24652484
100.12701,-0.246547395
100.12801,-0.246574695
100.12901,-0.246612966
100.13,-0.246656709
100.131,-0.246703741
100.132,-0.246753916
100.133,-0.246759126
100.134,-0.246734882
100.135,-0.246715208
100.136,-0.246697484
100.137,-0.246684358
100.138,-0.246672455
100.139,-0.246662064
100.14,-0.246656331
100.14101,-0.246653188
100.14201,-0.246650889
100.14301,-0.246650772
100.144,-0.246654876
100.145,-0.246660347
100.146,-0.246664975
100.147,-0.246671727
100.148,-0.246681942
100.149,-0.246694515
100.15,-0.246706652
100.151,-0.246722426
100.152,-0.24674047
100.153,-0.246760756
100.154,-0.24678334
100.15501,-0.246810872
100.15601,-0.246840005
100.15701,-0.246873329
100.158,-0.246910582
100.159,-0.246947951
100.16,-0.246923242
100.161,-0.24688759
100.162,-0.24685188
100.163,-0.246820331
100.164,-0.24679082
100.165,-0.246764946
100.166,-0.246742042
100.167,-0.246723503
100.168,-0.246712007
100.16901,-0.24670508
100.17001,-0.246706855
100.17101,-0.246717973
100.172,-0.246733049
100.173,-0.246754236
100.174,-0.24677391
100.175,-0.246791315
100.176,-0.246808544
100.177,-0.246824813
100.178,-0.246834825
100.179,-0.246841373
100.18,-0.246845942
100.181,-0.246842188
100.18201,-0.24683759
100.18301,-0.246828189
100.18401,-0.246813375
100.18501,-0.246796699
100.186,-0.246776006
100.187,-0.246752112
100.188,-0.246725976
100.189,-0.246699492
100.19,-0.24667065
100.191,-0.24664076
100.192,-0.246614451
100.193,-0.246585027
100.194,-0.246555486
100.195,-0.246528536
100.19601,-0.246501673
100.19701,-0.246479962
100.19801,-0.246458629
100.19901,-0.246440031
100.2,-0.246422307
100.201,-0.246411568
100.202,-0.246402255
100.203,-0.246396929
100.204,-0.246398849
100.205,-0.246405863
100.206,-0.246420561
100.207,-0.246445503
100.208,-0.246418087
100.209,-0.246330455
100.21001,-0.246242213
100.21101,-0.246148178
100.21201,-0.246054668
100.21301,-0.245970266
100.214,-0.245899777
100.215,-0.245866162
100.216,-0.245903706
100.217,-0.246063224
100.218,-0.246405281
100.219,-0.246726646
100.22,-0.24673008
100.221,-0.24684408
100.222,-0.24699705
100.223,-0.247130229
100.22401,-0.24721658
100.22501,-0.247243937
100.22601,-0.247218297
100.22701,-0.24713864
100.228,-0.247003336
100.229,-0.246815267
100.23,-0.246587151
100.231,-0.24638715
100.232,-0.246314594
100.233,-0.245928881
100.234,-0.245540054
100.235,-0.245360803
100.236,-0.245292351
100.237,-0.245286996
100.23801,-0.245371135
100.23901,-0.245585805
100.24001,-0.245908304
100.241,-0.245990086
100.242,-0.245936564
100.243,-0.245897245
100.244,-0.24587923
100.245,-0.245679374
100.246,-0.245352305
100.247,-0.245129282
100.248,-0.245016126
100.249,-0.244983239
100.25,-0.245006813
,-0.219523761
,-0.247243937
