Structure Acceleration, RAO-Based Response
Line A: Structure Acceleration, RAO-Based Response - Global Z (Trimaran - Center of Gravity relative to Origin of Fixed Reference Axes (FRA)) [mm/s²]
,
*Time (s),Line A (mm/s?
98.3,-1.790221548
98.301,-1.79092458
98.302,-1.791625982
98.303,-1.792329829
98.304,-1.793029951
98.305,-1.793723437
98.306,-1.794413547
98.30701,-1.795108779
98.30801,-1.795799937
98.30901,-1.796485391
98.31001,-1.797167817
98.311,-1.797845354
98.312,-1.798523474
98.313,-1.799197169
98.314,-1.799867372
98.315,-1.800535363
98.316,-1.801199396
98.317,-1.801863546
98.318,-1.802527113
98.319,-1.803184627
98.32,-1.803838881
98.32101,-1.804494997
98.32201,-1.805152511
98.32301,-1.805795589
98.32401,-1.80644216
98.325,-1.807084307
98.326,-1.807719818
98.327,-1.808360219
98.328,-1.808990724
98.329,-1.809622278
98.33,-1.810248708
98.331,-1.810875139
98.332,-1.81149866
98.333,-1.812122064
98.334,-1.812736853
98.33501,-1.813361421
98.33601,-1.813969924
98.33701,-1.814580988
98.33801,-1.815181808
98.339,-1.815791242
98.34,-1.816391828
98.341,-1.816992066
98.342,-1.817585668
98.343,-1.818181365
98.344,-1.818766817
98.345,-1.819358324
98.346,-1.819940866
98.347,-1.820524689
98.348,-1.82110176
98.34901,-1.821687561
98.35001,-1.822258811
98.35101,-1.822827384
98.35201,-1.823402126
98.353,-1.823964296
98.354,-1.824528677
98.355,-1.825085841
98.356,-1.825645217
98.357,-1.826203894
98.358,-1.826750929
98.359,-1.827300875
98.36,-1.827848144
98.361,-1.828395296
98.362,-1.828932553
98.36301,-1.82947563
98.36401,-1.830016146
98.36501,-1.830546185
98.366,-1.831075293
98.367,-1.831604983
98.368,-1.832122914
98.369,-1.832652139
98.37,-1.83316553
98.371,-1.833685441
98.372,-1.834197785
98.373,-1.834709779
98.374,-1.835217932
98.375,-1.835722709
98.376,-1.836225274
98.37701,-1.8367304
98.37801,-1.837228076
98.37901,-1.83772028
98.38,-1.838213881
98.381,-1.8386991
98.382,-1.839187811
98.383,-1.839667209
98.384,-1.840147772
98.385,-1.840627752
98.386,-1.841099467
98.387,-1.841571531
98.388,-1.8420415
98.389,-1.842507976
98.39,-1.842971775
98.39101,-1.843433012
98.39201,-1.843896229
98.39301,-1.84434629
98.394,-1.844802755
98.395,-1.845254563
98.396,-1.845696475
98.397,-1.84614514
98.398,-1.846582512
98.399,-1.847023028
98.4,-1.847458538
98.401,-1.847893465
98.402,-1.848319895
98.403,-1.848750981
98.404,-1.849177876
98.40501,-1.849598368
98.40601,-1.850011875
98.40701,-1.850435627
98.408,-1.850846224
98.409,-1.851261593
98.41,-1.851664274
98.411,-1.852067886
98.412,-1.852478483
98.413,-1.852871384
98.414,-1.853269641
98.415,-1.853659633
98.416,-1.854055328
98.417,-1.854438917
98.418,-1.85482169
98.41901,-1.855210867
98.42001,-1.85558782
98.42101,-1.855964656
98.422,-1.856343239
98.423,-1.856711227
98.424,-1.857085736
98.425,-1.857444062
98.426,-1.857806696
98.427,-1.858169213
98.428,-1.858524163
98.429,-1.858878299
98.43,-1.859229989
98.431,-1.859577838
98.43201,-1.859926735
98.43301,-1.86027342
98.43401,-1.860607532
98.43501,-1.860946766
98.436,-1.86127983
98.437,-1.861617435
98.438,-1.861940604
98.439,-1.862267847
98.44,-1.862588571
98.441,-1.862909179
98.442,-1.863230951
98.443,-1.863542711
98.444,-1.863855636
98.445,-1.864158548
98.44601,-1.864471124
98.44701,-1.864774269
98.44801,-1.865073224
98.44901,-1.865367522
98.45,-1.865663682
98.451,-1.865954255
98.452,-1.86624995
98.453,-1.866530511
98.454,-1.866815495
98.455,-1.867091167
98.456,-1.867372193
98.457,-1.86764379
98.458,-1.867910032
98.459,-1.86818582
98.46001,-1.868454623
98.46101,-1.868711784
98.46201,-1.868976513
98.46301,-1.869231812
98.464,-1.869486878
98.465,-1.869736123
98.466,-1.869983273
98.467,-1.870235195
98.468,-1.870470704
98.469,-1.870711683
98.47,-1.870942535
98.471,-1.871184097
98.472,-1.871412853
98.473,-1.871637302
98.47401,-1.871864544
98.47501,-1.872089691
98.47601,-1.872307505
98.47701,-1.872525434
98.478,-1.872733701
98.479,-1.872943714
98.48,-1.873156172
98.481,-1.873355592
98.482,-1.873560133
98.483,-1.873754081
98.484,-1.873950008
98.485,-1.874135807
98.486,-1.874318579
98.487,-1.874497859
98.48801,-1.874676323
98.48901,-1.874849549
98.49001,-1.875025569
98.491,-1.87519507
98.492,-1.875369344
98.493,-1.875533257
98.494,-1.875705551
98.495,-1.875875285
98.496,-1.876040013
98.497,-1.876204507
98.498,-1.876359805
98.499,-1.876519294
98.5,-1.876669936
98.501,-1.876824652
98.50201,-1.876973314
98.50301,-1.877116505
98.50401,-1.877260627
98.505,-1.87739369
98.506,-1.877529197
98.507,-1.877658768
98.508,-1.877787057
98.509,-1.877917908
98.51,-1.878038398
98.511,-1.878166338
98.512,-1.878292649
98.513,-1.878406387
98.514,-1.8785313
98.515,-1.87863945
98.51601,-1.878747833
98.51701,-1.878849464
98.51801,-1.878952724
98.519,-1.879040268
98.52,-1.879127929
98.521,-1.879196032
98.522,-1.879268792
98.523,-1.879337477
98.524,-1.879408373
98.525,-1.879477873
98.526,-1.879554125
98.527,-1.879635733
98.528,-1.879711752
98.529,-1.879796502
98.53001,-1.879885211
98.53101,-1.879972289
98.53201,-1.880063443
98.533,-1.880141324
98.534,-1.88018952
98.535,-1.880243304
98.536,-1.880286727
98.537,-1.880305819
98.538,-1.880316413
98.539,-1.88031618
98.54,-1.880316762
98.541,-1.880329102
98.542,-1.880342723
98.543,-1.880368683
98.54401,-1.880397554
98.54501,-1.880432246
98.54601,-1.880474039
98.547,-1.880522002
98.548,-1.880568103
98.549,-1.880616765
98.55,-1.880647498
98.551,-1.880661119
98.552,-1.880660304
98.553,-1.880655298
98.554,-1.880636904
98.555,-1.880597207
98.556,-1.880558557
98.55701,-1.880501863
98.55801,-1.880448079
98.55901,-1.880392781
98.56001,-1.880348776
98.561,-1.880302094
98.562,-1.880259835
98.563,-1.880227472
98.564,-1.880201511
98.565,-1.880169497
98.566,-1.880137133
98.567,-1.880098716
98.568,-1.880061696
98.569,-1.880021417
98.57,-1.879982417
98.57101,-1.87994109
98.57201,-1.879891846
98.57301,-1.879840973
98.57401,-1.879789517
98.575,-1.879736315
98.576,-1.87967415
98.577,-1.879613148
98.578,-1.87954912
98.579,-1.879486837
98.58,-1.879414427
98.581,-1.879340271
98.582,-1.879266929
98.583,-1.879185671
98.584,-1.879107556
98.58501,-1.879016403
98.58601,-1.878931886
98.58701,-1.878833282
98.58801,-1.878746203
98.589,-1.87864399
98.59,-1.87854399
98.591,-1.87843712
98.592,-1.878331299
98.593,-1.878217445
98.594,-1.878090319
98.595,-1.877956791
98.596,-1.877828268
98.597,-1.877691713
98.598,-1.8775512
98.59901,-1.877406146
98.60001,-1.877265167
98.60101,-1.877111499
98.60201,-1.876960741
98.603,-1.876808004
98.604,-1.876647933
98.605,-1.876483206
98.606,-1.876310795
98.607,-1.876139315
98.608,-1.875958755
98.609,-1.875783317
98.61,-1.875593443
98.611,-1.875405433
98.612,-1.87521067
98.61301,-1.875015441
98.61401,-1.87481672
98.61501,-1.874614391
98.616,-1.874401467
98.617,-1.874193782
98.618,-1.873983885
98.619,-1.873771311
98.62,-1.873551402
98.621,-1.873334637
98.622,-1.87312148
98.623,-1.872902969
98.624,-1.872689114
98.625,-1.872467459
98.626,-1.872265595
98.62701,-1.872071414
98.62801,-1.871895278
98.62901,-1.871716464
98.63,-1.871564775
98.631,-1.871413435
98.632,-1.871266402
98.633,-1.871128101
98.634,-1.870812615
98.635,-1.870492939
98.636,-1.870184322
98.637,-1.869884552
98.638,-1.869596541
98.639,-1.869311323
98.64,-1.869028318
98.64101,-1.86875416
98.64201,-1.868481166
98.64301,-1.868213527
98.644,-1.867937739
98.645,-1.867674757
98.646,-1.867405372
98.647,-1.867142622
98.648,-1.866876613
98.649,-1.86661887
98.65,-1.866367296
98.651,-1.866113511
98.652,-1.865878236
98.653,-1.865636208
98.654,-1.865415485
98.65501,-1.865192666
98.65601,-1.864938764
98.65701,-1.864540856
98.658,-1.864148304
98.659,-1.863761456
98.66,-1.863387763
98.661,-1.863021753
98.662,-1.862665871
98.663,-1.862308593
98.664,-1.861973316
98.665,-1.861635828
98.666,-1.861310448
98.667,-1.860980177
98.668,-1.86064397
98.66901,-1.860325341
98.67001,-1.860020682
98.67101,-1.859730342
98.672,-1.85944431
98.673,-1.859172247
98.674,-1.858892618
98.675,-1.858616597
98.676,-1.858322998
98.677,-1.857974683
98.678,-1.857567579
98.679,-1.857168856
98.68,-1.856775489
98.681,-1.856393064
98.68201,-1.856013434
98.68301,-1.85564335
98.68401,-1.855264883
98.68501,-1.8549097
98.686,-1.854546485
98.687,-1.854192582
98.688,-1.853836817
98.689,-1.853421796
98.69,-1.85299234
98.691,-1.852547284
98.692,-1.852110843
98.693,-1.851661829
98.694,-1.851230627
98.695,-1.850789762
98.69601,-1.850349247
98.69701,-1.849906403
98.69801,-1.849474269
98.69901,-1.849040505
98.7,-1.848607557
98.701,-1.848176122
98.702,-1.847750624
98.703,-1.847322681
98.704,-1.846908126
98.705,-1.846494619
98.706,-1.846089493
98.707,-1.845699619
98.708,-1.845321385
98.709,-1.844949438
98.71001,-1.844375511
98.71101,-1.84379844
98.71201,-1.843213919
98.71301,-1.84266502
98.714,-1.842151745
98.715,-1.841762569
98.716,-1.841583289
98.717,-1.841805992
98.718,-1.842723577
98.719,-1.844753977
98.72,-1.848369488
98.721,-1.853631577
98.722,-1.8580592
98.723,-1.863135258
98.72401,-1.86789548
98.72501,-1.871667686
98.72601,-1.874116715
98.72701,-1.875201357
98.728,-1.874963753
98.729,-1.87340274
98.73,-1.870516571
98.731,-1.866268693
98.732,-1.860811142
98.733,-1.854634727
98.734,-1.848717337
98.735,-1.842713449
98.736,-1.837754156
98.737,-1.834780327
98.73801,-1.833244693
98.73901,-1.83275179
98.74001,-1.833220362
98.741,-1.834725961
98.742,-1.837115618
98.743,-1.83972076
98.744,-1.841486082
98.745,-1.841552206
98.746,-1.840609242
98.747,-1.838504337
98.748,-1.835735282
98.749,-1.833239105
98.75,-1.831403468
98.751,-1.830314286
98.75201,-1.829755027
98.75301,-1.82942953
98.75401,-1.82897842
98.755,-1.828303677
98.756,-1.827568049
98.757,-1.827192726
98.758,-1.827484346
98.759,-1.828359091
98.76,-1.829141518
98.761,-1.828717184
98.762,-1.826547203
98.763,-1.823310158
98.764,-1.820581499
98.765,-1.819503959
98.76601,-1.820673002
98.76701,-1.824282925
98.76801,-1.827812521
98.769,-1.827618689
98.77,-1.823264873
98.771,-1.817192766
98.772,-1.814129297
98.773,-1.81491347
98.774,-1.820579404
98.775,-1.826119376
98.776,-1.825939515
98.777,-1.819329103
98.778,-1.81137945
98.779,-1.809549402
98.78001,-1.814484829
98.78101,-1.823478378
98.78201,-1.825599349
98.783,-1.81807857
98.784,-1.807549503
98.785,-1.805974869
98.786,-1.81472348
98.787,-1.824480249
98.788,-1.822146587
98.789,-1.809044974
98.79,-1.802184037
98.791,-1.807971392
98.792,-1.821916667
98.793,-1.822618535
98.79401,-1.807689085
98.79501,-1.799002173
98.79601,-1.807179069
98.797,-1.822687453
98.798,-1.818624092
98.799,-1.800340717
98.8,-1.796856523
,-1.880661119
