Structure Acceleration, RAO-Based Response
Line A: Structure Acceleration, RAO-Based Response - Global RX (Trimaran) [°/s²]
Line B: Structure Acceleration, RAO-Based Response - Global RY (Trimaran) [°/s²]
Line C: Structure Acceleration, RAO-Based Response - Global RZ (Trimaran) [°/s²]

*Time (s),Line A (°/s²),Line B (°/s²),Line C (°/s²)
99.4,.168317168951035,.789505958557129,7.40799605846405E-02
99.401,.16816283762455,.793258488178253,.074068009853363
99.402,.168006613850594,.797038853168488,7.40556865930557E-02
99.403,.167851075530052,.800786018371582,7.40432068705559E-02
99.404,.167694985866547,.804530680179596,7.40305334329605E-02
99.405,.167537018656731,.808302521705627,7.40174278616905E-02
99.406,.167379602789879,.812041044235229,.074004165828228
99.40701,.167219147086143,.815837383270264,7.39904195070267E-02
99.408,.167060554027557,.819570124149323,7.39766359329224E-02
99.409,.16690020263195,.823330402374268,.073962464928627
99.41,.166740536689758,.827057361602783,7.39481523633003E-02
99.411,.166578993201256,.830811440944672,7.39334672689438E-02
99.412,.16641803085804,.834532558917999,7.39186406135559E-02
99.413,.166255310177803,.838280975818634,7.39034190773964E-02
99.414,.166093349456787,.841996133327484,7.38880559802055E-02
99.415,.165930733084679,.845708310604096,7.38724395632744E-02
99.416,.165766298770905,.849447727203369,7.38564282655716E-02
99.417,.165602564811707,.853153765201569,7.38402828574181E-02
99.418,.165436893701553,.856886625289917,7.38236904144287E-02
99.419,.16527184844017,.860587179660797,7.38069713115692E-02
99.42,.165105164051056,.864314377307892,7.37899243831635E-02
99.42101,.164937928318977,.868038475513458,.073772594332695
99.422,.164769917726517,.871759176254272,7.37548694014549E-02
99.423,.164602965116501,.875447034835815,.073737159371376
99.424,.164433971047401,.879161655902863,7.37189799547195E-02
99.425,.164265751838684,.882843375205994,7.37006962299347E-02
99.426,.164095669984818,.886551737785339,7.36819803714752E-02
99.427,.163926497101784,.890227198600769,.073663167655468
99.428,.163756608963013,.893898725509644,7.36440420150757E-02
99.429,.163584962487221,.897597968578339,7.36244916915894E-02
99.43,.163414046168327,.901263773441315,7.36048370599747E-02
99.431,.163241282105446,.904955685138702,7.35847279429436E-02
99.432,.163069352507591,.908615052700043,7.35645741224289E-02
99.433,.162895813584328,.912301242351532,7.35439509153366E-02
99.434,.16272284090519,.915954113006592,.073523186147213
99.43501,.162546560168266,.919663727283478,.073501817882061
99.436,.162372812628746,.923309445381165,7.34806060791016E-02
99.437,.162198424339294,.926951885223389,7.34589919447899E-02
99.438,.162023544311523,.930593132972717,7.34371244907379E-02
99.439,.16184689104557,.934258818626404,7.34148174524307E-02
99.44,.161671206355095,.937892258167267,7.33924359083176E-02
99.441,.161494985222816,.941522717475891,7.33697265386581E-02
99.442,.161316975951195,.945177912712097,7.33465850353241E-02
99.443,.161139830946922,.948800802230835,7.33233019709587E-02
99.444,.160960868000984,.95244950056076,7.32995644211769E-02
99.445,.160783052444458,.956065773963928,7.32757523655891E-02
99.446,.160603180527687,.959707975387573,7.32514262199402E-02
99.447,.160426050424576,.963290750980377,7.32272192835808E-02
99.448,.160245552659035,.966924488544464,7.32023343443871E-02
99.44901,.160064548254013,.970557630062103,7.31771066784859E-02
99.45,.159883260726929,.974185109138489,7.31516033411026E-02
99.451,.159703031182289,.977781176567078,7.31260105967522E-02
99.452,.159521073102951,.981403827667236,7.30999559164047E-02
99.453,.159340530633926,.984991312026978,7.30738341808319E-02
99.454,.159160971641541,.988548874855042,7.30475187301636E-02
99.455,.15897810459137,.99215829372406,7.30204954743385E-02
99.456,.158796712756157,.995735645294189,7.29934126138687E-02
99.457,.158613368868828,.999340236186981,7.29657411575317E-02
99.458,.158431589603424,1.00291109085083,7.29380249977112E-02
99.459,.158249512314796,1.00647842884064,7.29099288582802E-02
99.46,.158067390322685,1.01004266738892,7.28815644979477E-02
99.461,.157883614301682,1.01363062858582,7.28525966405869E-02
99.462,.157701253890991,1.01718854904175,7.28235319256783E-02
99.46301,.157515853643417,1.02079808712006,.07279372215271
99.464,.157334923744202,1.02431869506836,7.27641880512238E-02
99.465,.157152503728867,1.02786433696747,7.27340653538704E-02
99.466,.156968846917152,1.03143465518951,7.27034211158752E-02
99.467,.156788274645805,1.03494346141815,7.26728364825249E-02
99.468,.156604900956154,1.03850638866425,7.26414695382118E-02
99.469,.156423285603523,1.04203724861145,7.26098790764809E-02
99.47,.15624026954174,1.04559338092804,7.25776702165604E-02
99.471,.15606090426445,1.04908728599548,7.25455954670906E-02
99.472,.155878841876984,1.05263411998749,7.25126266479492E-02
99.473,.155698880553246,1.05614912509918,7.24794641137123E-02
99.474,.155519530177116,1.05966186523438,7.24459439516068E-02
99.475,.155340671539307,1.06316792964935,7.24118575453758E-02
99.476,.155162930488586,1.06667172908783,7.23773986101151E-02
99.47701,.154984325170517,1.07019984722137,7.23421946167946E-02
99.478,.154808580875397,1.07369470596313,.072306863963604
99.479,.154633864760399,1.0771861076355,.072270929813385
99.48,.154460534453392,1.08067345619202,7.22344666719437E-02
99.481,.154288485646248,1.08415687084198,7.21974074840546E-02
99.482,.154118418693542,1.08763515949249,7.21598714590073E-02
99.483,.153950124979019,1.09110915660858,7.21217170357704E-02
99.484,.153783932328224,1.09458124637604,.072082906961441
99.485,.153619930148125,1.09804630279541,7.20434933900833E-02
99.486,.153458550572395,1.10150969028473,7.20033049583435E-02
99.487,.153300002217293,1.10496723651886,7.19624534249306E-02
99.488,.153146177530289,1.10839259624481,7.19211548566818E-02
99.489,.152992531657219,1.11186933517456,7.18784332275391E-02
99.49,.152845829725266,1.11528658866882,7.18354880809784E-02
99.491,.152701422572136,1.11872625350952,7.17913880944252E-02
99.492,.152559742331505,1.12218976020813,7.17460587620735E-02
99.493,.152426272630692,1.12559187412262,7.17003643512726E-02
99.494,.152296230196953,1.12901949882507,.0716532766819
99.495,.152171954512596,1.13243901729584,7.16051831841469E-02
99.496,.152053698897362,1.13585519790649,.071555957198143
99.497,.151943773031235,1.13923919200897,7.15058296918869E-02
99.498,.151839286088943,1.1426442861557,7.14541524648666E-02
99.499,.151744201779366,1.1460177898407,7.14014545083046E-02
99.5,.151655614376068,1.14941430091858,7.13469907641411E-02
99.501,.151577636599541,1.15277743339539,7.12913945317268E-02
99.502,.151507824659348,1.15616154670715,7.12340325117111E-02
99.503,.151449725031853,1.15951466560364,7.11752027273178E-02
99.504,.151402860879898,1.16286015510559,7.11146965622902E-02
99.505,.151364624500275,1.16625785827637,7.10518285632133E-02
99.506,.151342332363129,1.16959130764008,7.09875971078873E-02
99.507,.151332229375839,1.17294764518738,7.09210336208344E-02
99.508,.151338309049606,1.17626953125,7.08526894450188E-02
99.509,.151358604431152,1.17961299419403,7.07818046212196E-02
99.51,.151398628950119,1.18289637565613,7.07091242074966E-02
99.511,.151453539729118,1.18622744083405,7.06333592534065E-02
99.512,.151529088616371,1.18952393531799,7.05552846193314E-02
99.513,.151625037193298,1.19281303882599,7.04744383692741E-02
99.514,.151742696762085,1.19609642028809,7.03906267881393E-02
99.515,.151883989572525,1.19937121868134,7.03038424253464E-02
99.516,.152049899101257,1.20263803005219,7.02136754989624E-02
99.517,.152242362499237,1.20589923858643,.070120133459568
99.518,.152463227510452,1.20914959907532,7.00229853391647E-02
99.519,.152713999152184,1.21239340305328,6.99219778180122E-02
99.52,.152995556592941,1.21565449237823,6.98166042566299E-02
99.521,.153314590454102,1.21885216236115,6.97076991200447E-02
99.522,.153668358922005,1.22206974029541,6.95938766002655E-02
99.523,.154061391949654,1.2252756357193,6.94753676652908E-02
99.524,.154495641589165,1.22847092151642,6.93517550826073E-02
99.525,.154975935816765,1.23162996768951,6.92232400178909E-02
99.526,.155501633882523,1.23480582237244,6.90887123346329E-02
99.527,.156078964471817,1.23794078826904,6.89486563205719E-02
99.528,.15670882165432,1.24109280109406,6.88019618391991E-02
99.529,.157397210597992,1.24420440196991,6.86488896608353E-02
99.53,.158146768808365,1.24730384349823,6.84887766838074E-02
99.531,.158960059285164,1.25041532516479,6.83208480477333E-02
99.53201,.159842967987061,1.25351202487946,6.81450366973877E-02
99.533,.160800099372864,1.25659227371216,6.79607465863228E-02
99.534,.161838158965111,1.25963139533997,6.77679181098938E-02
99.535,.162959665060043,1.26267778873444,6.75651729106903E-02
99.536,.164174616336823,1.2656534910202,6.73530995845795E-02
99.537,.165484309196472,1.26866185665131,6.71295076608658E-02
99.538,.166899338364601,1.27162396907806,6.68948441743851E-02
99.539,.168425694108009,1.27456223964691,.066647931933403
99.54,.170071840286255,1.27747750282288,6.63880780339241E-02
99.541,.171846285462379,1.28036510944366,6.61142989993095E-02
99.542,.173758670687675,1.2832270860672,6.58256188035011E-02
99.543,.175820127129555,1.2860324382782,6.55212625861168E-02
99.544,.178039342164993,1.28885722160339,6.51991963386536E-02
99.545,.180432036519051,1.29159426689148,6.48595839738846E-02
99.54601,.183008342981339,1.29434597492218,6.44994899630547E-02
99.547,.185786187648773,1.29700183868408,6.41189515590668E-02
99.548,.188779175281525,1.29966485500336,6.37149140238762E-02
99.549,.19200724363327,1.30222499370575,6.32868930697441E-02
99.55,.195488676428795,1.30475699901581,6.28319159150124E-02
99.551,.199245572090149,1.3071995973587,6.23484216630459E-02
99.552,.203301981091499,1.30960214138031,6.18333779275417E-02
99.553,.207684442400932,1.31190168857574,6.12846352159977E-02
99.554,.212422668933868,1.31411778926849,6.06988035142422E-02
99.555,.217549741268158,1.31623899936676,6.00725412368774E-02
99.556,.223102673888206,1.31825292110443,5.94021566212177E-02
99.557,.229123204946518,1.32017433643341,.058682844042778
99.558,.235657960176468,1.32193267345428,5.79105988144875E-02
99.559,.242759540677071,1.32353568077087,5.70794194936752E-02
99.56001,.250489085912704,1.32498788833618,5.61829805374146E-02
99.561,.258912414312363,1.32620882987976,5.52147179841995E-02
99.562,.268107801675797,1.32719361782074,5.41661269962788E-02
99.563,.278163880109787,1.32790493965149,.053027868270874
99.564,.28918194770813,1.32829427719116,5.17891980707645E-02
99.565,.301279693841934,1.3283097743988,5.04375137388706E-02
99.566,.314589351415634,1.32785606384277,4.89582568407059E-02
99.567,.329269647598267,1.32687222957611,4.73340786993504E-02
99.568,.345510303974152,1.32530391216278,4.55442480742931E-02
99.569,.363511741161346,1.32292258739471,4.35654632747173E-02
99.57,.38353443145752,1.31963765621185,4.13684956729412E-02
99.571,.405863106250763,1.31519150733948,3.89191210269928E-02
99.572,.430850833654404,1.30936372280121,3.61757650971413E-02
99.573,.458884179592133,1.3017383813858,3.30883115530014E-02
99.57401,.490465015172958,1.29198527336121,2.95951794832945E-02
99.575,.526105344295502,1.2793984413147,2.56218854337931E-02
99.576,.566446125507355,1.26327013969421,2.10768692195415E-02
99.577,.612146317958832,1.24251329898834,1.58481188118458E-02
99.578,.663947522640228,1.21586322784424,9.80161409825087E-03
99.579,.724751472473145,1.18545258045197,2.99194385297596E-03
99.58,.79494297504425,1.1473183631897,-4.83515718951821E-03
99.581,.874111831188202,1.09686529636383,-1.39498095959425E-02
99.582,.961844563484192,1.03049182891846,-2.45308708399534E-02
99.583,1.05629146099091,.944329142570496,-3.67087088525295E-02
99.584,1.15348601341248,.835093915462494,-5.04999943077564E-02
99.585,1.24709188938141,.701591432094574,-6.57268315553665E-02
99.586,1.33551645278931,.538489460945129,-8.09089094400406E-02
99.587,1.41719615459442,.333843439817429,-9.33887585997581E-02
99.58801,1.46499168872833,.121472097933292,-.105581387877464
99.589,1.47966146469116,-8.39387029409409E-02,-.116995483636856
99.59,1.46742343902588,-.271513134241104,-.127305448055267
99.591,1.43667507171631,-.435832887887955,-.136370092630386
99.592,1.39359068870544,-.58094185590744,-.140181824564934
99.593,1.34157145023346,-.711306989192963,-.136107549071312
99.594,1.28788459300995,-.819560706615448,-.132582426071167
99.595,1.23550641536713,-.909386098384857,-.129530757665634
99.596,1.18610084056854,-.984164953231812,-.126881167292595
99.597,1.14045143127441,-1.04672873020172,-.124573312699795
99.598,1.09888577461243,-1.09946382045746,-.122550711035728
99.599,1.06137526035309,-1.14420127868652,-.120771631598473
99.6,1.02775728702545,-1.18241381645203,-.119200102984905
99.601,.997780382633209,-1.21524107456207,-.117808401584625
99.60201,.971222162246704,-1.24368858337402,-.11656615883112
99.603,.947752058506012,-1.26836907863617,-.115461014211178
99.604,.927146196365356,-1.28993189334869,-.114472292363644
99.605,.909188807010651,-1.30890333652496,-.113581962883472
99.606,.893607020378113,-1.32554304599762,-.1127859801054
99.607,.880242228507996,-1.34025323390961,-.112068474292755
99.608,.868888974189758,-1.35322570800781,-.111424908041954
99.609,.859409630298615,-1.36472868919373,-.110844016075134
99.61,.851635158061981,-1.37487649917603,-.110323309898376
99.611,.845457792282104,-1.38387429714203,-.10985355079174
99.612,.840733885765076,-1.39178121089935,-.109433569014072
99.613,.837366819381714,-1.39873337745667,-.109057389199734
99.614,.835257768630981,-1.40481555461884,-.108721189200878
99.615,.834326446056366,-1.41013669967651,-.108419582247734
99.616,.834477066993713,-1.4147275686264,-.10815154761076
99.617,.835607469081879,-1.41858315467834,-.10791815072298
99.618,.83769154548645,-1.42188060283661,-.107709139585495
99.619,.840624451637268,-1.42456865310669,-.107527978718281
99.62,.844350874423981,-1.42671573162079,-.107370540499687
99.621,.848798811435699,-1.42833340167999,-.107236713171005
99.622,.85394150018692,-1.42954564094543,-.107118755578995
99.623,.859674274921417,-1.43026316165924,-.107022635638714
99.624,.865973711013794,-1.43060684204102,-.106940634548664
99.625,.872762203216553,-1.4305465221405,-.106875151395798
99.626,.88000625371933,-1.43017327785492,-.106820397078991
99.627,.887628018856049,-1.42945420742035,-.106778658926487
99.628,.895599186420441,-1.42848587036133,-.106744453310966
99.629,.903837561607361,-1.42723679542542,-.106720067560673
99.63,.912298977375031,-1.42577362060547,-.106701724231243
99.631,.920933842658997,-1.42416656017303,-.106685616075993
99.632,.929639458656311,-1.42236828804016,-.106675714254379
99.633,.938396513462067,-1.42054665088654,-.106662131845951
99.634,.947086095809936,-1.41863763332367,-.106650479137897
99.635,.955673277378082,-1.41677963733673,-.10663279145956
99.636,.964065074920654,-1.41497111320496,-.10661081969738
99.637,.972221314907074,-1.41333055496216,-.106578670442104
99.638,.980048477649689,-1.41185021400452,-.106538169085979
99.639,.98749315738678,-1.41061985492706,-.106485389173031
99.64,.994488477706909,-1.40970253944397,-.106418140232563
99.641,1.00096416473389,-1.40915989875793,-.106334291398525
99.642,1.00683557987213,-1.40903258323669,-.106233604252338
99.643,1.01205122470856,-1.40944921970367,-.10610980540514
99.644,1.01651310920715,-1.41045379638672,-.105962231755257
99.645,1.02012193202972,-1.41210007667542,-.105790413916111
99.646,1.02280616760254,-1.41453182697296,-.105587340891361
99.647,1.02443361282349,-1.41777980327606,-.105354070663452
99.648,1.02490079402924,-1.4219628572464,-.105085365474224
99.649,1.02407038211823,-1.42715656757355,-.104779712855816
99.65,1.02182698249817,-1.43351781368256,-.104429334402084
99.651,1.01798689365387,-1.4410936832428,-.10403423756361
99.652,1.01240229606628,-1.45005118846893,-.103585921227932
99.653,1.00485408306122,-1.4604434967041,-.103083923459053
99.654,.995146214962006,-1.47243368625641,-.102518811821938
99.655,.982999861240387,-1.48604488372803,-.101891465485096
99.656,.968164801597595,-1.50143647193909,-.101191781461239
99.65701,.950353145599365,-1.51875066757202,-.100409358739853
99.658,.929176568984985,-1.53795373439789,-9.95455160737038E-02
99.659,.904284477233887,-1.55918300151825,-9.85871031880379E-02
99.66,.875226318836212,-1.58239781856537,-.097530335187912
99.661,.841541945934296,-1.60761260986328,-9.63652282953262E-02
99.662,.802714049816132,-1.63475275039673,-9.50832813978195E-02
99.663,.758188009262085,-1.66367173194885,-9.36760902404785E-02
99.664,.707378089427948,-1.69410049915314,-9.21374261379242E-02
99.665,.649711072444916,-1.72575211524963,-9.04553160071373E-02
99.666,.584523975849152,-1.75781917572021,-8.84633138775826E-02
99.667,.509956538677216,-1.7847592830658,-8.26870501041412E-02
99.668,.427427858114243,-1.81028974056244,-7.64357373118401E-02
99.669,.336855262517929,-1.83357989788055,-.069706991314888
99.67,.238378867506981,-1.85355353355408,-6.25183582305908E-02
99.67101,.132439449429512,-1.86911654472351,-5.49006685614586E-02
99.672,1.98154002428055E-02,-1.87918245792389,-4.69014160335064E-02
99.673,-9.83545631170273E-02,-1.88270926475525,-3.85869815945625E-02
99.674,-.220619380474091,-1.87904465198517,-3.00333499908447E-02
99.675,-.345229268074036,-1.86760067939758,-2.13381480425596E-02
99.676,-.470285326242447,-1.84828805923462,-1.26036508008838E-02
99.677,-.593842744827271,-1.82137501239777,-3.93684348091483E-03
99.678,-.714046597480774,-1.78751039505005,4.55745728686452E-03
99.679,-.829238057136536,-1.74764025211334,1.27818174660206E-02
99.68,-.938109636306763,-1.70307517051697,2.06512678414583E-02
99.681,-1.03390622138977,-1.64601874351501,2.79222279787064E-02
99.682,-1.12005650997162,-1.58662354946136,3.46923694014549E-02
99.683,-1.19742345809937,-1.52798497676849,4.09493781626225E-02
99.684,-1.26606845855713,-1.47126531600952,.046663761138916
99.68501,-1.32639241218567,-1.41771996021271,5.18121011555195E-02
99.686,-1.37865304946899,-1.36818659305573,5.63817732036114E-02
99.687,-1.42338132858276,-1.3236540555954,6.03584609925747E-02
99.688,-1.46091485023499,-1.2848174571991,6.37334883213043E-02
99.689,-1.49164974689484,-1.25241470336914,6.64941221475601E-02
99.69,-1.51580464839935,-1.22703838348389,6.86284527182579E-02
99.691,-1.53358197212219,-1.20933628082275,7.01178014278412E-02
99.692,-1.54497969150543,-1.19986569881439,7.09418952465057E-02
99.693,-1.54986691474915,-1.19917380809784,7.10755288600922E-02
99.694,-1.54794430732727,-1.20776331424713,7.04899728298187E-02
99.695,-1.53873634338379,-1.22605836391449,6.91545233130455E-02
99.696,-1.52160954475403,-1.25436198711395,6.70383647084236E-02
99.697,-1.49573528766632,-1.29272282123566,6.41174837946892E-02
99.698,-1.46020352840424,-1.34087991714478,6.03780336678028E-02
99.69901,-1.41413342952728,-1.39815962314606,5.58243356645107E-02
99.7,-1.35677218437195,-1.46329641342163,5.04904724657536E-02
99.701,-1.28775942325592,-1.53440761566162,4.44477088749409E-02
99.702,-1.2074499130249,-1.60909843444824,.037810992449522
99.703,-1.11700999736786,-1.68444204330444,3.07447426021099E-02
99.704,-1.01872193813324,-1.75747072696686,.023455860093236
99.705,-.910751402378082,-1.81538426876068,1.60229187458754E-02
99.706,-.802294671535492,-1.86305367946625,8.82224831730127E-03
99.707,-.699312329292297,-1.90227770805359,2.14823381975293E-03
99.708,-.606069982051849,-1.93314266204834,-3.77308600582182E-03
99.709,-.526371240615845,-1.9564768075943,-8.74855555593967E-03
99.71,-.463355123996735,-1.97332727909088,-1.26242749392986E-02
99.711,-.419630646705627,-1.98498165607452,-1.52731416746974E-02
99.712,-.397258430719376,-1.99223923683167,-1.65977831929922E-02
99.71301,-.398020833730698,-1.9956818819046,-1.65098961442709E-02
99.714,-.423317044973373,-1.99488294124603,-1.49431005120277E-02
99.715,-.474252790212631,-1.9888870716095,-1.18383066728711E-02
99.716,-.551247477531433,-1.97567498683929,-7.16887041926384E-03
99.717,-.653630912303925,-1.95252740383148,-9.55949712079018E-04
99.718,-.778970777988434,-1.91628468036652,6.69640675187111E-03
