Structure Acceleration, RAO-Based Response
Line A: Structure Acceleration, RAO-Based Response - Global RX (Trimaran) [°/s²]
Line B: Structure Acceleration, RAO-Based Response - Global RY (Trimaran) [°/s²]
Line C: Structure Acceleration, RAO-Based Response - Global RZ (Trimaran) [°/s²]

*Time (s),Line A (°/s²),Line B (°/s²),Line C (°/s²)
100,-4.42728698253632E-02,6.14764642715454,9.90495532751083E-02
100.001,-4.42362800240517E-02,6.16538667678833,9.88666862249374E-02
100.002,-4.41997349262238E-02,6.18329095840454,9.86810028553009E-02
100.003,-4.41631861031055E-02,6.20094585418701,.098496749997139
100.004,-4.41260002553463E-02,6.21855783462525,9.83118265867233E-02
100.005,-4.40875254571438E-02,6.23633146286011,.098124086856842
100.006,-4.40500788390636E-02,6.25385808944702,9.79377999901772E-02
100.007,-4.40116040408611E-02,6.27154350280762,9.77486819028854E-02
100.008,-4.39723841845989E-02,6.28918552398682,9.75588634610176E-02
100.009,-4.39333729445934E-02,6.30658054351807,9.73705425858498E-02
100.01,-4.38935048878193E-02,6.32413387298584,9.71793606877327E-02
100.011,-.043853122740984,6.34144163131714,9.69896614551544E-02
100.012,-4.38123643398285E-02,6.35870552062988,9.67993214726448E-02
100.013,-4.37711216509342E-02,6.37612628936768,9.66061130166054E-02
100.014,-.043729692697525,6.39330148696899,9.64144095778465E-02
100.015,-.043687354773283,6.4106330871582,9.62198525667191E-02
100.016,-.043644942343235,6.4277195930481,9.60268378257751E-02
100.017,-.04360156878829,6.44496011734009,9.58308801054955E-02
100.018,-4.35579158365726E-02,6.46195793151855,9.56365317106247E-02
100.019,-4.35137711465359E-02,6.47891187667847,9.54415127635002E-02
100.02,-4.34684418141842E-02,6.49601554870605,9.52435508370399E-02
100.021,-.04342245683074,6.51307487487793,9.50449258089066E-02
100.022,-4.33761291205883E-02,6.52989435195923,9.48478952050209E-02
100.023,-4.33286279439926E-02,6.54686069488525,9.46479141712189E-02
100.024,-4.32808324694633E-02,6.56358766555786,9.44495722651482E-02
100.025,-.043232686817646,6.58046340942383,9.42482501268387E-02
100.026,-4.31836843490601E-02,6.59710025787354,9.40486043691635E-02
100.027,-4.31347265839577E-02,6.61369037628174,9.38482955098152E-02
100.028,-4.30841259658337E-02,6.63042879104614,.093644991517067
100.029,-4.30333986878395E-02,6.64692783355713,.093443363904953
100.03,-4.29810583591461E-02,6.66357088088989,9.32387188076973E-02
100.031,-4.29281555116177E-02,6.67997789382935,9.30357724428177E-02
100.032,-4.28738929331303E-02,6.69652843475342,9.28298383951187E-02
100.033,-4.28195036947727E-02,6.71284198760986,.092625580728054
100.034,-4.27636466920376E-02,6.72911024093628,.092420682311058
100.035,-4.27061207592487E-02,6.74570751190186,9.22103598713875E-02
100.036,-4.26486022770405E-02,6.76187992095947,9.20041352510452E-02
100.037,-4.25903275609016E-02,6.77800798416138,9.17972922325134E-02
100.038,-4.25298102200031E-02,6.79427289962769,9.15873646736145E-02
100.039,-4.24686633050442E-02,6.81049203872681,9.13767963647842E-02
100.04,-4.24065589904785E-02,6.82666254043579,9.11655575037003E-02
100.041,-4.23426888883114E-02,6.84259986877441,9.09560769796371E-02
100.042,-4.22781780362129E-02,6.85848951339722,9.07459706068039E-02
100.043,-4.22119311988354E-02,6.87451553344727,9.05327573418617E-02
100.044,-4.21447306871414E-02,6.89031219482422,9.03213694691658E-02
100.045,-4.20757159590721E-02,6.90624094009399,9.01068598031998E-02
100.046,-4.20055501163006E-02,6.92194032669067,8.98941829800606E-02
100.047,-.041933860629797,6.93777275085449,8.96783173084259E-02
100.048,-4.18611504137516E-02,6.95337438583374,8.94643291831017E-02
100.049,-4.17852774262428E-02,6.96929121017456,8.92447233200073E-02
100.05,-4.17086556553841E-02,6.98497581481934,8.90269428491592E-02
100.051,-4.16307300329208E-02,7.00043344497681,8.88109803199768E-02
100.052,-4.15507145226002E-02,7.01584100723267,8.85944217443466E-02
100.053,-.041467722505331,7.03137969970703,8.83746445178986E-02
100.054,-4.13840040564537E-02,7.04669046401978,8.81567746400833E-02
100.055,-4.12980392575264E-02,7.06212902069092,.087935708463192
100.056,-.041209552437067,7.07751846313477,8.77139717340469E-02
100.057,-4.11185100674629E-02,7.09285593032837,8.74915793538094E-02
100.058,-4.10259328782558E-02,7.10796928405762,.087271086871624
100.059,-4.09306772053242E-02,7.12303400039673,8.70499610900879E-02
100.06,-4.08327132463455E-02,7.13822221755981,8.68256017565727E-02
100.061,-4.07314039766788E-02,7.15336179733276,.086600586771965
100.062,-4.06276322901249E-02,7.16844940185547,8.63748788833618E-02
100.063,-4.05208840966225E-02,7.18348503112793,8.61485004425049E-02
100.064,-.040411401540041,7.1983003616333,8.59240591526031E-02
100.065,-4.02985736727715E-02,7.21323585510254,8.56963917613029E-02
100.066,-.040181390941143,7.22812032699585,8.54680016636848E-02
100.067,-4.00614663958549E-02,7.24278402328491,8.52415785193443E-02
100.068,-3.99377904832363E-02,7.25756597518921,8.50118473172188E-02
100.069,-.039809737354517,7.27229785919189,8.47814604640007E-02
100.07,-3.96774336695671E-02,7.2869758605957,8.45503434538841E-02
100.071,-3.95412221550941E-02,7.30143451690674,8.43211784958839E-02
100.072,-3.93994338810444E-02,7.31601190567017,8.40886756777763E-02
100.073,-3.92526015639305E-02,7.33053541183472,8.38554799556732E-02
100.074,-3.91010716557503E-02,7.34484052658081,8.36242586374283E-02
100.075,-3.89432497322559E-02,7.35926008224487,8.33896473050117E-02
100.076,-3.87793779373169E-02,7.37362623214722,8.31542909145355E-02
100.077,-3.86099256575108E-02,7.38794231414795,8.29182416200638E-02
100.078,-3.84319163858891E-02,7.40236854553223,8.26787352561951E-02
100.079,-3.82483825087547E-02,7.41641426086426,8.24438855051994E-02
100.08,-3.80554459989071E-02,7.43057060241699,.082205519080162
100.081,-3.78542132675648E-02,7.44467306137085,8.19664373993874E-02
100.082,-.037645049393177,7.45856142044067,8.17292630672455E-02
100.083,-3.74241918325424E-02,7.47271776199341,8.14858376979828E-02
100.084,-3.71941514313221E-02,7.48650217056274,8.12470391392708E-02
100.085,-.03695123270154,7.50054931640625,8.10019746422768E-02
100.086,-3.66972684860229E-02,7.51422500610352,8.07614549994469E-02
100.087,-3.64288240671158E-02,7.52816438674927,8.05145800113678E-02
100.088,-3.61471809446812E-02,7.54188823699951,8.02695602178574E-02
100.089,-3.58516648411751E-02,7.55540275573731,8.00264105200768E-02
100.09,-3.55384536087513E-02,7.56917572021484,7.97767415642738E-02
100.091,-3.52084301412106E-02,7.58273506164551,.079528845846653
100.092,-3.48597951233387E-02,7.59624195098877,7.92799443006516E-02
100.093,-.034490741789341,7.60984659194946,7.90271982550621E-02
100.094,-3.41009087860584E-02,7.62323808670044,7.87761583924294E-02
100.095,-3.36883254349232E-02,7.63657665252686,7.85240009427071E-02
100.096,-3.32515612244606E-02,7.6498589515686,7.82706886529922E-02
100.097,-3.27870883047581E-02,7.6632342338562,7.80132934451103E-02
100.098,-3.22962775826454E-02,7.67640209197998,7.77574926614761E-02
100.099,-3.17755080759525E-02,7.68951082229614,7.75004327297211E-02
100.1,-.031222453340888,7.70271348953247,7.72391259670258E-02
100.101,-3.06365005671978E-02,7.71570730209351,7.69792795181274E-02
100.102,-3.00132092088461E-02,7.72879219055176,7.67150670289993E-02
100.103,-2.93527375906706E-02,7.74166774749756,7.64521956443787E-02
100.104,-2.86517329514027E-02,7.75448608398438,7.61877447366714E-02
100.105,-2.79050040990114E-02,7.76753902435303,7.59157985448837E-02
100.106,-2.71148700267076E-02,7.78023719787598,7.56478980183601E-02
100.107,-2.62752808630466E-02,7.79287195205688,7.53781571984291E-02
100.108,-2.53827385604382E-02,7.80559587478638,7.51036033034325E-02
100.109,-2.44354866445065E-02,7.81811189651489,.074829950928688
100.11,-2.34276242554188E-02,7.8308539390564,7.45482966303825E-02
100.111,-2.23594736307859E-02,7.84324359893799,7.42702856659889E-02
100.112,-2.12234444916248E-02,7.85571575164795,7.39870518445969E-02
100.113,-2.00173556804657E-02,7.86812210083008,7.37013295292854E-02
100.114,-1.87380034476519E-02,7.88032245635986,7.34159797430038E-02
100.115,-1.73775125294924E-02,7.89274120330811,7.31220543384552E-02
100.116,-1.59354489296675E-02,7.90481185913086,7.28311985731125E-02
100.117,-1.44012337550521E-02,7.91709518432617,7.25313499569893E-02
100.118,-1.27748837694526E-02,7.92903614044189,7.22343623638153E-02
100.119,-1.10461171716452E-02,7.94118022918701,7.19279795885086E-02
100.12,-9.21202450990677E-03,7.95312023162842,7.16211125254631E-02
100.121,-7.26501364260912E-03,7.96499443054199,7.13105350732803E-02
100.122,-5.19876461476088E-03,7.97679281234741,7.09960535168648E-02
100.123,-3.00359562970698E-03,7.98865270614624,7.06743896007538E-02
100.124,-6.75905263051391E-04,8.00017261505127,7.03543946146965E-02
100.125,1.79794395808131E-03,8.011887550354,.070023700594902
100.126,4.42230422049761E-03,8.02339363098145,6.96911215782166E-02
100.127,7.20985513180494E-03,8.03495311737061,6.93502947688103E-02
100.128,1.01679135113955E-02,8.04630374908447,.06900704652071
100.129,1.33082903921604E-02,8.05757713317871,6.86579123139381E-02
100.13,1.66441071778536E-02,8.06889820098877,6.82994872331619E-02
100.131,2.01850477606058E-02,8.08000564575195,6.79375976324081E-02
100.132,2.39472910761833E-02,8.09115791320801,6.75656199455261E-02
100.133,2.79464889317751E-02,8.10235214233398,6.71829506754875E-02
100.134,3.21925319731236E-02,8.11319923400879,6.67986497282982E-02
100.135,3.67056839168072E-02,8.12408065795898,6.64026960730553E-02
100.136,4.15017753839493E-02,8.13474273681641,6.60009235143661E-02
100.137,4.66051585972309E-02,8.14555931091309,.065583199262619
100.138,5.20292297005653E-02,8.15602588653564,6.51614591479301E-02
100.139,.057802464812994,8.16651248931885,6.47255331277847E-02
100.14,.063947394490242,8.1768913269043,.064277857542038
100.141,7.04910233616829E-02,8.18716144561768,6.38174712657928E-02
100.142,7.74623453617096E-02,8.19731330871582,6.33434951305389E-02
100.143,8.48933085799217E-02,8.20734405517578,6.28549754619598E-02
100.144,9.28183495998383E-02,8.21724987030029,.062350682914257
100.145,.101275131106377,8.22702217102051,6.18295259773731E-02
100.146,.110307425260544,8.23677539825439,6.12867996096611E-02
100.147,.119958229362965,8.24625968933105,6.07276111841202E-02
100.148,.130280882120132,8.25570678710938,6.01436980068684E-02
100.149,.141326189041138,8.26487064361572,.059540007263422
100.15,.15316416323185,8.27397441864014,5.89077621698379E-02
100.151,.165855869650841,8.28277397155762,5.82514032721519E-02
100.152,.17948442697525,8.29148292541504,5.75617551803589E-02
100.153,.194128423929214,8.29986190795898,5.68428486585617E-02
100.154,.209887817502022,8.30799961090088,5.60881271958351E-02
100.155,.226874902844429,8.31599140167236,5.52904978394508E-02
100.156,.245207637548447,8.32370281219482,5.44494353234768E-02
100.157,.26502451300621,8.33109569549561,5.35604767501354E-02
100.158,.286478400230408,8.33803272247314,5.26220500469208E-02
100.159,.309763044118881,8.34480476379395,5.16171827912331E-02
100.16,.335070133209229,8.35103416442871,5.05501888692379E-02
100.161,.362642973661423,8.35677146911621,4.94092851877213E-02
100.162,.392753154039383,8.36184597015381,4.81893010437489E-02
100.163,.425736576318741,8.36649990081787,4.68678288161755E-02
100.164,.461954712867737,8.37031555175781,4.54439483582973E-02
100.165,.501857817173004,8.37327861785889,4.38986085355282E-02
100.166,.545975267887115,8.37523651123047,4.22140210866928E-02
100.167,.594945192337036,8.37610912322998,4.03645187616348E-02
100.168,.649518251419067,8.37545394897461,.038332112133503
100.169,.710628867149353,8.37307739257813,3.60808297991753E-02
100.17,.779427289962769,8.36868858337402,3.35665121674538E-02
100.171,.857313811779022,8.3615779876709,3.07483412325382E-02
100.172,.946086227893829,8.35126495361328,2.75543183088303E-02
100.173,1.04798662662506,8.33662414550781,2.39125732332468E-02
100.174,1.16595065593719,8.31657409667969,1.97075568139553E-02
100.175,1.30378019809723,8.2892017364502,1.48027744144201E-02
100.176,1.46652364730835,8.25177955627441,9.01194103062153E-03
100.177,1.66104805469513,8.20056533813477,2.05794791691005E-03
100.178,1.89668595790863,8.12942790985107,-6.43197726458311E-03
100.179,2.18624782562256,8.02882099151611,-1.70043893158436E-02
100.18,2.54775142669678,7.88295555114746,-3.04845348000526E-02
100.181,3.00639867782593,7.66453266143799,-4.81512285768986E-02
100.182,3.59594178199768,7.3251519203186,-7.20898881554604E-02
100.183,4.35369491577148,6.77601289749146,-.105607412755489
100.184,5.27473497390747,5.8107385635376,-.141601115465164
100.185,6.08809471130371,4.04421997070313,-.133944630622864
100.186,6.37287139892578,1.76781237125397,-.123807035386562
100.187,5.90078401565552,-.512692332267761,-.102083712816238
100.188,4.94081783294678,-2.11722302436829,-7.72765949368477E-02
100.189,4.00166940689087,-2.97678232192993,-5.86945563554764E-02
100.19,3.34252738952637,-3.49324536323547,-4.18341904878616E-02
100.191,2.85505890846252,-3.81059885025024,-2.87589449435473E-02
100.192,2.48056721687317,-4.00364923477173,-1.91756431013346E-02
100.193,2.19017815589905,-4.12695550918579,-1.19465412572026E-02
100.194,1.9614669084549,-4.209303855896,-6.36252807453275E-03
100.195,1.77834987640381,-4.26645088195801,-1.95535505190492E-03
100.196,1.62954366207123,-4.30742406845093,1.5852676006034E-03
100.197,1.50713467597961,-4.33768892288208,4.46074036881328E-03
100.198,1.40535926818848,-4.36058235168457,6.82517327368259E-03
100.199,1.32007682323456,-4.37832546234131,8.77713039517403E-03
100.2,1.24813687801361,-4.39232158660889,1.04007609188557E-02
100.201,1.18719923496246,-4.40358114242554,1.17511739954352E-02
100.202,1.13546144962311,-4.41281175613403,1.28699941560626E-02
100.203,1.09148681163788,-4.42048358917236,1.37951215729117E-02
100.204,1.05413293838501,-4.42692804336548,1.45567478612065E-02
100.205,1.0225248336792,-4.43245077133179,1.51711441576481E-02
100.206,.99588280916214,-4.43717622756958,.015664454549551
100.207,.973657250404358,-4.44133710861206,1.60402599722147E-02
100.208,.955306351184845,-4.44498205184937,1.63188669830561E-02
100.209,.940406084060669,-4.44819402694702,1.65104549378157E-02
100.21,.928636908531189,-4.45109796524048,1.66154950857162E-02
100.211,.919653594493866,-4.45368337631226,1.66495125740767E-02
100.212,.9132040143013,-4.45600986480713,1.66161321103573E-02
100.213,.909057199954986,-4.45810604095459,1.65208671241999E-02
100.214,.907007932662964,-4.45999431610107,1.63686778396368E-02
100.215,.90686559677124,-4.46167469024658,1.61665175110102E-02
100.216,.908500850200653,-4.46321439743042,1.59105118364096E-02
100.217,.911722362041473,-4.46455001831055,1.56145794317126E-02
100.218,.916430175304413,-4.46574640274048,1.52742108330131E-02
100.219,.922487080097198,-4.46679067611694,1.48951150476933E-02
100.22,.929779231548309,-4.46768665313721,1.44800208508968E-02
100.221,.938185393810272,-4.468421459198,1.40344277024269E-02
100.222,.947626233100891,-4.46903085708618,1.35554177686572E-02
100.223,.957978248596192,-4.46948957443237,1.30511205643415E-02
100.224,.969156444072723,-4.46981334686279,1.25212306156754E-02
100.225,.981079757213593,-4.47001695632935,1.19653679430485E-02
100.226,.993634402751922,-4.47008371353149,1.13915279507637E-02
100.227,1.00674998760223,-4.47003936767578,1.07966745272279E-02
100.228,1.02030909061432,-4.46986055374146,1.01887909695506E-02
100.229,1.03424334526062,-4.46958303451538,9.56499669700861E-03
100.23,1.0484391450882,-4.46920204162598,8.93082935363054E-03
100.231,1.06276869773865,-4.46871566772461,8.29245336353779E-03
100.232,1.07713651657104,-4.46815776824951,7.64759397134185E-03
100.233,1.09139776229858,-4.46752500534058,7.00562633574009E-03
100.234,1.10543823242188,-4.46684169769287,6.36730715632439E-03
100.235,1.11914253234863,-4.4661340713501,5.73363713920116E-03
100.236,1.13235723972321,-4.46539735794067,5.11689903214574E-03
100.237,1.14500749111176,-4.46468353271484,4.50911233201623E-03
100.238,1.15693485736847,-4.46398878097534,3.92294302582741E-03
100.239,1.16804158687592,-4.46335172653198,3.35644767619669E-03
100.24,1.17817378044128,-4.46278142929077,2.8194640763104E-03
100.241,1.18720507621765,-4.46230983734131,2.31365999206901E-03
100.242,1.19500327110291,-4.46197080612183,1.84049259405583E-03
100.243,1.20137512683868,-4.4617748260498,1.41432939562947E-03
100.244,1.20620107650757,-4.4617748260498,1.02847709786147E-03
100.245,1.20927929878235,-4.46199083328247,6.94758316967636E-04
100.246,1.21040594577789,-4.46244812011719,4.22694662120193E-04
100.247,1.20939445495605,-4.46318864822388,2.13129926123656E-04
100.248,1.20599734783173,-4.46423673629761,7.96210661064833E-05
100.249,1.19997274875641,-4.46562051773071,3.02556036331225E-05
100.25,1.19108653068542,-4.46737766265869,6.49201465421356E-05
100.251,1.17901134490967,-4.46952629089355,2.02637835172936E-04
100.252,1.1634533405304,-4.47208881378174,4.47987724328414E-04
100.253,1.14403486251831,-4.47507190704346,8.19072418380529E-04
100.254,1.12039482593536,-4.47848701477051,1.32282555568963E-03
100.255,1.092080950737,-4.48231029510498,1.97987444698811E-03
100.256,1.05862307548523,-4.48652076721191,2.80602718703449E-03
100.257,1.01952171325684,-4.49106884002686,3.81089886650443E-03
100.258,.974172055721283,-4.49587154388428,5.02032926306129E-03
100.259,.921916842460632,-4.50080442428589,6.45944150164723E-03
100.26,.862043619155884,-4.50570106506348,8.14822223037481E-03
100.261,.793724358081818,-4.51032257080078,1.01202363148332E-02
100.262,.716054677963257,-4.51435470581055,1.24053377658129E-02
100.263,.628011584281921,-4.51737356185913,1.50403566658497E-02
100.264,.528454959392548,-4.5188136100769,1.80671364068985E-02
100.265,.416134655475616,-4.51793432235718,2.15307306498289E-02
100.266,.289665549993515,-4.51377534866333,2.54892222583294E-02
100.267,.147570833563805,-4.50508213043213,2.99992542713881E-02
100.268,-1.18396962061524E-02,-4.49946355819702,3.51114757359028E-02
100.269,-.192024722695351,-4.51436853408813,4.07971255481243E-02
100.27,-.395760655403137,-4.52292442321777,4.72440496087074E-02
100.271,-.625524163246155,-4.522132396698,5.45378588140011E-02
100.272,-.883668005466461,-4.5081353187561,6.27728849649429E-02
100.273,-1.17213320732117,-4.4760627746582,7.20437914133072E-02
100.274,-1.49213290214539,-4.41993427276611,8.24393406510353E-02
100.275,-1.84355115890503,-4.33271217346191,9.40378308296204E-02
100.276,-2.22427129745483,-4.2065896987915,.106890134513378
100.277,-2.62964582443237,-4.03347110748291,.121012568473816
100.278,-3.05173587799072,-3.80611729621887,.136357799172401
100.279,-3.47944617271423,-3.51928544044495,.15281867980957
100.28,-3.89888763427734,-3.17134165763855,.170205622911453
100.281,-4.32853937149048,-2.81992721557617,.185306131839752
100.282,-4.75590896606445,-2.44563055038452,.198811590671539
100.283,-5.14852428436279,-2.02064728736877,.212342396378517
100.284,-5.49517774581909,-1.55742359161377,.225670754909515
100.285,-5.78900527954102,-1.07054626941681,.238588064908981
100.286,-6.02775526046753,-.574579119682312,.250930905342102
100.287,-6.21313714981079,-8.23055952787399E-02,.262604296207428
100.288,-6.34964179992676,.395939886569977,.273532658815384
100.289,-6.44334888458252,.852902591228485,.283709794282913
100.29,-6.50341415405273,1.27526032924652,.291972279548645
100.291,-6.55202388763428,1.6201343536377,.292617380619049
100.292,-6.58057498931885,1.94304990768433,.293223470449448
100.293,-6.59281778335571,2.24357533454895,.293793320655823
100.294,-6.59207201004028,2.52191638946533,.294329702854156
100.295,-6.58119487762451,2.77867197990417,.294835984706879
100.296,-6.56263256072998,3.01461005210876,.295309245586395
100.297,-6.53842735290527,3.23066020011902,.295763731002808
100.298,-6.5103588104248,3.42759346961975,.296186357736588
100.299,-6.47987461090088,3.60628986358643,.296600669622421
100.3,-6.44828271865845,3.7673282623291,.296993464231491
100.301,-6.41670560836792,3.91124296188354,.297367930412292
100.302,-6.38610935211182,4.03843593597412,.29773136973381
100.303,-6.35737609863281,4.14914035797119,.298086434602737
