Structure Acceleration, RAO-Based Response
Line A: Structure Acceleration, RAO-Based Response - Global RX (Trimaran) [°/s²]
Line B: Structure Acceleration, RAO-Based Response - Global RY (Trimaran) [°/s²]
Line C: Structure Acceleration, RAO-Based Response - Global RZ (Trimaran) [°/s²]

*Time (s),Line A (°/s²),Line B (°/s²),Line C (°/s²)
99.4,-3.57938674278557E-03,-6.88257455825806,4.27649430930614E-02
99.401,-3.68689699098468E-03,-6.87348794937134,4.30830679833889E-02
99.402,-3.79283656366169E-03,-6.86443996429443,4.33974862098694E-02
99.403,-3.8997323717922E-03,-6.85523796081543,4.37148846685886E-02
99.404,-4.00541350245476E-03,-6.84607648849487,4.40287180244923E-02
99.405,-4.11229766905308E-03,-6.8367600440979,4.43453788757324E-02
99.406,-4.21953294426203E-03,-6.82738637924194,4.46615405380726E-02
99.40701,-4.3266867287457E-03,-6.81795454025269,4.49775941669941E-02
99.408,-4.43374644964933E-03,-6.8084659576416,4.52931262552738E-02
99.409,-4.53968718647957E-03,-6.79902076721191,4.56050857901573E-02
99.41,-4.64700488373637E-03,-6.78941774368286,4.59198616445065E-02
99.411,-4.75403899326921E-03,-6.77975797653198,4.62342463433743E-02
99.412,-4.86035505309701E-03,-6.77014398574829,4.65450920164585E-02
99.413,-4.96752234175801E-03,-6.76037073135376,4.68588396906853E-02
99.414,-5.07514085620642E-03,-6.7505407333374,4.71720620989799E-02
99.415,-5.18100848421454E-03,-6.74075794219971,4.74817231297493E-02
99.416,-5.28844492509961E-03,-6.73081636428833,4.77942898869515E-02
99.417,-5.39595121517777E-03,-6.72081708908081,4.81064319610596E-02
99.418,-5.50254387781024E-03,-6.7108678817749,4.84149158000946E-02
99.419,-5.6102117523551E-03,-6.70075654983521,4.87262643873692E-02
99.42,-5.71820512413979E-03,-6.69058895111084,4.90372031927109E-02
99.42101,-5.82671724259853E-03,-6.68036365509033,4.93478626012802E-02
99.422,-5.93459839001298E-03,-6.67008543014526,4.96581085026264E-02
99.423,-6.04237290099263E-03,-6.65985631942749,.049964677542448
99.424,-6.15121703594923E-03,-6.64946556091309,5.02742156386375E-02
99.425,-6.26036431640387E-03,-6.63901662826538,5.05831874907017E-02
99.426,-6.3677653670311E-03,-6.62862348556519,5.08886314928532E-02
99.427,-6.47667283192277E-03,-6.61806535720825,5.11968992650509E-02
99.428,-6.58769253641367E-03,-6.60734033584595,.051507979631424
99.429,-6.69630290940404E-03,-6.59677934646606,5.18122613430023E-02
99.43,-6.80708372965455E-03,-6.58605480194092,5.21193519234657E-02
99.431,-6.91728619858623E-03,-6.5752739906311,5.24260140955448E-02
99.432,-7.02720740810037E-03,-6.56455183029175,5.27291297912598E-02
99.433,-7.13879568502307E-03,-6.55365991592407,5.30350208282471E-02
99.434,-7.2493995539844E-03,-6.54271364212036,5.33406101167202E-02
99.43501,-7.36161833629012E-03,-6.53171253204346,5.36456145346165E-02
99.436,-7.47366435825825E-03,-6.52065706253052,5.39503060281277E-02
99.437,-7.58434552699327E-03,-6.50966262817383,5.42514696717262E-02
99.438,-7.69890332594514E-03,-6.49837970733643,5.45585602521896E-02
99.439,-7.81198963522911E-03,-6.48715877532959,5.48619888722897E-02
99.44,-7.92441703379154E-03,-6.47600126266479,5.51619194447994E-02
99.441,-8.03843513131142E-03,-6.46467256546021,5.54646998643875E-02
99.442,-8.15288629382849E-03,-6.45328807830811,5.57669997215271E-02
99.443,-8.26647225767374E-03,-6.44197130203247,5.60656748712063E-02
99.444,-8.38320516049862E-03,-6.43035888671875,5.63703402876854E-02
99.445,-8.4995636716485E-03,-6.41881322860718,.056671354919672
99.446,-8.61501507461071E-03,-6.40733480453491,5.69688677787781E-02
99.447,-8.73155612498522E-03,-6.39568185806274,5.72691895067692E-02
99.448,-8.84965155273676E-03,-6.38397264480591,5.75691498816013E-02
99.44901,-8.96948110312223E-03,-6.37208652496338,5.78717663884163E-02
99.45,-9.0886652469635E-03,-6.36027050018311,5.81708662211895E-02
99.451,-9.20744519680738E-03,-6.34852647781372,5.84664940834045E-02
99.452,-9.32739954441786E-03,-6.33660459518433,5.87648823857307E-02
99.453,-9.44985076785088E-03,-6.32450389862061,5.90658970177174E-02
99.454,-9.57109499722719E-03,-6.31260204315186,5.93603141605854E-02
99.455,-9.69319697469473E-03,-6.30051946640015,5.96574544906616E-02
99.456,-9.81787405908108E-03,-6.28825521469116,5.99573105573654E-02
99.457,-9.94122494012117E-03,-6.27619361877441,6.02507255971432E-02
99.458,-.010066376067698,-6.2639536857605,6.05467334389687E-02
99.459,-.010191791690886,-6.2517876625061,.060839269310236
99.46,-1.03197768330574E-02,-6.23931121826172,6.11375793814659E-02
99.461,-1.04479566216469E-02,-6.22691440582275,6.14324435591698E-02
99.462,-1.05768069624901E-02,-6.2144603729248,.061726987361908
99.46301,-1.07086887583137E-02,-6.20182371139526,6.20240941643715E-02
99.464,-1.08386194333434E-02,-6.18939971923828,6.23148381710052E-02
99.465,-.010972011834383,-6.17665815353394,.062611386179924
99.466,-1.11056361347437E-02,-6.16399526596069,6.29044622182846E-02
99.467,-1.12405894324183E-02,-6.15128135681152,6.31971582770348E-02
99.468,-1.13771110773087E-02,-6.13851499557495,.063489556312561
99.469,-1.15150129422545E-02,-6.12569856643677,6.37815445661545E-02
99.47,-1.16538042202592E-02,-6.11282873153687,6.40732422471046E-02
99.471,-1.17943407967687E-02,-6.09990835189819,6.43646568059921E-02
99.472,-1.19380848482251E-02,-6.0867977142334,6.46587535738945E-02
99.473,-1.20811387896538E-02,-6.07391119003296,6.49466961622238E-02
99.474,-1.22283669188619E-02,-6.06069612503052,6.52400627732277E-02
99.475,-1.23772388324142E-02,-6.04743194580078,6.55333921313286E-02
99.476,-1.25265549868345E-02,-6.03438949584961,6.58204033970833E-02
99.47701,-1.26812532544136E-02,-6.02088165283203,6.61161914467812E-02
99.478,-1.28352642059326E-02,-6.00773906707764,6.64027184247971E-02
99.479,-1.29931261762977E-02,-5.99426651000977,6.66951313614845E-02
99.48,-1.31539702415466E-02,-5.98074197769165,6.69872239232063E-02
99.481,-1.33152529597282E-02,-5.96744775772095,6.72731548547745E-02
99.482,-1.34821347892284E-02,-5.9538197517395,6.75649344921112E-02
99.483,-1.36519940569997E-02,-5.94014024734497,6.78566321730614E-02
99.484,-1.38235408812761E-02,-5.92669534683228,6.81423544883728E-02
99.485,-1.40009140595794E-02,-5.91291379928589,6.84338435530663E-02
99.486,-1.41820563003421E-02,-5.89908075332642,6.87253773212433E-02
99.487,-1.43658639863133E-02,-5.88534069061279,6.90139904618263E-02
99.488,-1.45557885989547E-02,-5.87140464782715,6.93055540323257E-02
99.489,-1.47500038146973E-02,-5.85756206512451,6.95943310856819E-02
99.49,-1.49490181356668E-02,-5.84367275238037,6.98833987116814E-02
99.491,-1.51563780382276E-02,-5.82943773269653,7.01783522963524E-02
99.492,-1.53680862858891E-02,-5.8154444694519,7.04677700996399E-02
99.493,-1.55863249674439E-02,-5.80125379562378,7.07604512572289E-02
99.494,-1.58120095729828E-02,-5.78701210021973,7.10534751415253E-02
99.495,-1.60441491752863E-02,-5.77286815643311,7.13441222906113E-02
99.496,-1.62851046770811E-02,-5.7585244178772,7.16380849480629E-02
99.497,-1.65343396365643E-02,-5.7441291809082,.071932777762413
99.498,-1.67926903814077E-02,-5.72968435287476,7.22280591726303E-02
99.499,-1.70602761209011E-02,-5.71518754959107,7.25240111351013E-02
99.5,-1.73379946500063E-02,-5.70063924789429,7.28207677602768E-02
99.501,-1.76254399120808E-02,-5.68619251251221,7.31155499815941E-02
99.502,-1.79257690906525E-02,-5.67139053344727,7.34170004725456E-02
99.503,-1.82370096445084E-02,-5.65668869018555,7.37167745828629E-02
99.504,-1.85604114085436E-02,-5.64209032058716,7.40150287747383E-02
99.505,-1.89000349491835E-02,-5.62698125839233,.074322834610939
99.506,-1.92503873258829E-02,-5.61228275299072,7.46237561106682E-02
99.507,-1.96178201586008E-02,-5.59722375869751,7.49317407608032E-02
99.508,-1.99997685849667E-02,-5.58226633071899,7.52386897802353E-02
99.509,-2.03986242413521E-02,-5.56725597381592,7.55472928285599E-02
99.51,-2.08156351000071E-02,-5.55204057693481,7.58606418967247E-02
99.511,-2.12498269975185E-02,-5.53708744049072,7.61705338954926E-02
99.512,-2.17051208019257E-02,-5.52177047729492,7.64882490038872E-02
99.513,-2.21805665642023E-02,-5.50639677047729,7.68083110451698E-02
99.514,-2.26773303002119E-02,-5.49113368988037,7.71281719207764E-02
99.515,-2.31980178505182E-02,-5.4756555557251,7.74535834789276E-02
99.516,-2.37426050007343E-02,-5.46012783050537,7.77818784117699E-02
99.517,-2.43115555495024E-02,-5.4447021484375,7.81106054782867E-02
99.518,-.024908285588026,-5.42906808853149,7.84454569220543E-02
99.519,-.025533102452755,-5.41338062286377,7.87838399410248E-02
99.52,-2.61878799647093E-02,-5.39763927459717,7.91260674595833E-02
99.521,-2.68741231411695E-02,-5.38184356689453,7.94724747538567E-02
99.522,-2.75928229093552E-02,-5.3661584854126,7.98206329345703E-02
99.523,-2.83477995544672E-02,-5.35009527206421,8.01786705851555E-02
99.524,-2.91390120983124E-02,-5.33413696289063,8.05389657616615E-02
99.525,-2.99683827906847E-02,-5.31828880310059,8.09019431471825E-02
99.526,-3.08398194611073E-02,-5.30205917358399,8.12758579850197E-02
99.527,-3.17538343369961E-02,-5.2859320640564,8.16532149910927E-02
99.528,-3.27133797109127E-02,-5.26975345611572,8.20368602871895E-02
99.529,-3.37207727134228E-02,-5.25351905822754,8.24273824691772E-02
99.53,-3.47799882292747E-02,-5.23706483840942,8.28277468681335E-02
99.531,-3.58917452394962E-02,-5.22071361541748,8.32331851124763E-02
99.53201,-3.70612144470215E-02,-5.2039737701416,8.36521461606026E-02
99.533,-.038289986550808,-5.18767595291138,8.40719491243362E-02
99.534,-3.95822748541832E-02,-5.17098379135132,8.45064744353294E-02
99.535,-4.09423373639584E-02,-5.15422868728638,8.49509462714195E-02
99.536,-4.23734188079834E-02,-5.13758373260498,8.54034647345543E-02
99.537,-4.38804440200329E-02,-5.12071228027344,8.58699530363083E-02
99.538,-.045467421412468,-5.10377168655396,8.63487049937248E-02
99.539,-4.71398569643497E-02,-5.08693981170654,.086837999522686
99.54,-4.89024072885513E-02,-5.06970167160034,8.73461067676544E-02
99.541,-5.07613308727741E-02,-5.05256700515747,8.78667533397675E-02
99.542,-5.27242086827755E-02,-5.0355372428894,8.84008258581161E-02
99.543,-5.47949112951756E-02,-5.01809310913086,8.89571756124496E-02
99.544,-5.69835491478443E-02,-5.00075006484985,8.95294174551964E-02
99.545,-.059297613799572,-4.98333406448364,9.01214927434921E-02
99.54601,-6.17440976202488E-02,-4.96567106246948,9.07374769449234E-02
99.547,-6.43355175852776E-02,-4.94810342788696,9.13739502429962E-02
99.548,-6.70810863375664E-02,-4.93045568466187,9.20354351401329E-02
99.549,-6.99912086129189E-02,-4.91254949569702,.092726118862629
99.55,-7.30812326073647E-02,-4.89473390579224,.093443475663662
99.551,-7.63622671365738E-02,-4.87665414810181,9.41948443651199E-02
99.552,-.079851932823658,-4.85848093032837,.09498031437397
99.553,-.083568811416626,-4.84038400650024,9.58009511232376E-02
99.554,-8.75289514660835E-02,-4.82201051712036,9.66645553708076E-02
99.555,-9.17558446526527E-02,-4.80352878570557,9.75726470351219E-02
99.556,-9.62757095694542E-02,-4.78510570526123,9.85271632671356E-02
99.557,-.101111367344856,-4.76638507843018,9.95375812053681E-02
99.558,-.106299333274364,-4.74771308898926,.100604742765427
99.559,-.111864022910595,-4.72854328155518,.101741462945938
99.56001,-.117851249873638,-4.70921802520752,.102950215339661
99.561,-.124310486018658,-4.68991136550903,.104236900806427
99.562,-.131289809942245,-4.6704249382019,.10561316460371
99.563,-.138849601149559,-4.65073823928833,.107089631259441
99.564,-.147058516740799,-4.63083267211914,.10867878049612
99.565,-.155991911888123,-4.61050319671631,.110397040843964
99.566,-.165756240487099,-4.59008073806763,.112257465720177
99.567,-.176450803875923,-4.569167137146,.114284753799438
99.568,-.188222676515579,-4.54808330535889,.116499044001102
99.569,-.201224938035011,-4.52658939361572,.11893156170845
99.57,-.215641349554062,-4.50443887710571,.121619775891304
99.571,-.231714352965355,-4.48172903060913,.124605342745781
99.572,-.249733284115791,-4.45835161209106,.127942353487015
99.573,-.270058572292328,-4.43416404724121,.131698727607727
99.57401,-.293144732713699,-4.40899276733398,.135960906744003
99.575,-.319571256637573,-4.38259267807007,.140840485692024
99.576,-.350073486566544,-4.35445022583008,.146485358476639
99.577,-.38569375872612,-4.32466554641724,.153088003396988
99.578,-.427679538726807,-4.29185676574707,.160920172929764
99.579,-.477849632501602,-4.25564050674438,.170344620943069
99.58,-.538662016391754,-4.21443462371826,.181892812252045
99.581,-.613637089729309,-4.16584396362305,.196357920765877
99.582,-.708061575889587,-4.10661840438843,.214970648288727
99.583,-.829745829105377,-4.03036594390869,.239736393094063
99.584,-.990495026111603,-3.92574596405029,.274090677499771
99.585,-1.20766878128052,-3.77223658561707,.324244916439056
99.586,-1.50257873535156,-3.53345227241516,.401784688234329
99.587,-1.84356641769409,-3.0713951587677,.46687176823616
99.58801,-2.10907530784607,-2.47175359725952,.503467738628387
99.589,-2.42703294754028,-1.57782697677612,.432416915893555
99.59,-2.4456479549408,-.717434108257294,.319844275712967
99.591,-2.20062756538391,-6.15576133131981E-02,.247450709342957
99.592,-1.84166193008423,.400457561016083,.200662240386009
99.593,-1.55710601806641,.649515569210052,.169904455542564
99.594,-1.33954048156738,.792986154556274,.148492500185966
99.595,-1.17187225818634,.880176365375519,.132869482040405
99.596,-1.04033625125885,.935116946697235,.12104319781065
99.597,-.93532407283783,.970695316791535,.111829854547977
99.598,-.849997818470001,.99361377954483,.104490824043751
99.599,-.7797532081604,1.00829243659973,9.85407084226608E-02
99.6,-.721224069595337,1.01721608638763,9.36504378914833E-02
99.601,-.671984553337097,1.02204048633575,8.95882174372673E-02
99.60201,-.630239963531494,1.02386605739594,8.61867293715477E-02
99.603,-.59461498260498,1.02336061000824,8.33225175738335E-02
99.604,-.564101159572601,1.02123212814331,8.08998420834541E-02
99.605,-.537889659404755,1.01786351203918,7.88468345999718E-02
99.606,-.51529324054718,1.01335752010345,7.71074593067169E-02
99.607,-.49581715464592,1.0080099105835,7.56362527608871E-02
99.608,-.479052603244781,1.00206863880157,7.43954554200172E-02
99.609,-.464621901512146,.995476365089417,7.33568966388702E-02
99.61,-.452253520488739,.988416016101837,.07249516248703
99.611,-.441721320152283,.981050729751587,7.17887878417969E-02
99.612,-.432804256677628,.973351299762726,7.12211281061172E-02
99.613,-.425326615571976,.96536248922348,7.07772895693779E-02
99.614,-.419121772050858,.957030951976776,.070445254445076
99.615,-.414073139429092,.948477745056152,7.02131018042565E-02
99.616,-.41007936000824,.939821422100067,7.00703859329224E-02
99.617,-.407008826732635,.930896401405334,7.00100436806679E-02
99.618,-.404814600944519,.921999573707581,7.00221434235573E-02
99.619,-.403353214263916,.912772715091705,7.01027289032936E-02
99.62,-.402598589658737,.903507649898529,7.02435895800591E-02
99.621,-.40246593952179,.894122302532196,7.04396590590477E-02
99.622,-.402892351150513,.884625315666199,7.06856772303581E-02
99.623,-.403821051120758,.87502658367157,7.09768310189247E-02
99.624,-.405211538076401,.865423381328583,7.13077485561371E-02
99.625,-.406967848539352,.855547368526459,7.16763660311699E-02
99.626,-.409089386463165,.84568178653717,7.20765143632889E-02
99.627,-.411529302597046,.835833549499512,7.25042745471001E-02
99.628,-.414212942123413,.825821101665497,7.29573741555214E-02
99.629,-.417112112045288,.815747737884521,7.34312683343887E-02
99.63,-.420185297727585,.805616915225983,7.39223212003708E-02
99.631,-.423391819000244,.795433759689331,.07442706823349
99.632,-.42670875787735,.785301625728607,7.49412998557091E-02
99.633,-.430062472820282,.775037825107574,.075462743639946
99.634,-.433423548936844,.76474928855896,7.59866312146187E-02
99.635,-.436777412891388,.754628360271454,7.65071660280228E-02
99.636,-.440009385347366,.744314610958099,7.70226940512657E-02
99.637,-.44310250878334,.734005749225616,7.75270983576775E-02
99.638,-.446025878190994,.723806619644165,7.80153572559357E-02
99.639,-.448699206113815,.713541984558105,.078484334051609
99.64,-.451091140508652,.703318893909454,7.89287462830544E-02
99.641,-.453197509050369,.693336009979248,7.93434530496597E-02
99.642,-.454902023077011,.68323016166687,7.97265842556953E-02
99.643,-.45619523525238,.673204660415649,8.00723135471344E-02
99.644,-.457032442092896,.663272559642792,8.03762525320053E-02
99.645,-.457383304834366,.653542518615723,8.06329473853111E-02
99.646,-.457179516553879,.643931269645691,8.08379873633385E-02
99.647,-.456345647573471,.634366154670715,8.09860303997993E-02
99.648,-.454844087362289,.624953866004944,8.10708627104759E-02
99.649,-.452651381492615,.615900933742523,8.10852870345116E-02
99.65,-.449624359607697,.606848180294037,8.10244381427765E-02
99.651,-.445729523897171,.597999691963196,8.08799490332603E-02
99.652,-.440907746553421,.589469969272614,.080643430352211
99.653,-.435056388378143,.581180274486542,8.03068429231644E-02
99.654,-.428061068058014,.573052763938904,7.98608511686325E-02
99.655,-.419858753681183,.56529313325882,7.92943313717842E-02
99.656,-.410317122936249,.55781888961792,7.85963907837868E-02
99.65701,-.399290800094604,.550549805164337,.077754482626915
99.658,-.38666045665741,.543589353561401,7.67543688416481E-02
99.659,-.372267097234726,.53694087266922,7.55801126360893E-02
99.66,-.355966746807098,.530793368816376,7.42129907011986E-02
99.661,-.337493658065796,.524755775928497,7.26353824138641E-02
99.662,-.316654562950134,.51899665594101,7.08237141370773E-02
99.663,-.293215394020081,.513672947883606,6.87509104609489E-02
99.664,-.266818821430206,.508346140384674,6.63897693157196E-02
99.665,-.237156897783279,.503220081329346,6.37040510773659E-02
99.666,-.203811377286911,.498079985380173,6.06545098125935E-02
99.667,-.166306465864182,.492662817239761,5.71956597268581E-02
99.668,-.124113745987415,.486926048994064,5.32713793218136E-02
99.669,-7.65914171934128E-02,.480449318885803,4.88187298178673E-02
99.67,-2.30006482452154E-02,.472688466310501,4.37633879482746E-02
99.67101,3.77170704305172E-02,.463124781847,3.82377170026302E-02
99.672,.106508158147335,.450639277696609,3.21125201880932E-02
99.673,.18434701859951,.434260219335556,2.51188240945339E-02
99.674,.272462666034698,.412244975566864,1.71150248497725E-02
99.675,.372146755456924,.382247745990753,7.93209113180637E-03
99.676,.484748840332031,.341475754976273,-2.64059845358133E-03
99.677,.611289203166962,.285361289978027,-1.48378293961287E-02
99.678,.752382695674896,.208575114607811,-2.89506278932095E-02
99.679,.907393336296082,.103649139404297,-4.53007444739342E-02
99.68,1.07355630397797,-3.87130603194237E-02,-6.42389729619026E-02
99.681,1.24445474147797,-.229523897171021,-8.61072465777397E-02
99.682,1.4085967540741,-.479825913906097,-.111197985708714
99.683,1.54737782478333,-.798566818237305,-.139610156416893
99.684,1.55868518352509,-1.0748438835144,-.168684870004654
99.68501,1.46033024787903,-1.26102006435394,-.197579443454742
99.686,1.33841443061829,-1.44307148456573,-.2276391685009
99.687,1.1980619430542,-1.61248564720154,-.257692962884903
99.688,1.0462327003479,-1.76290023326874,-.286544889211655
99.689,.8905348777771,-1.89100635051727,-.31327560544014
99.69,.772985637187958,-1.87002277374268,-.302553504705429
99.691,.692766010761261,-1.82203006744385,-.284089624881744
99.692,.634412288665771,-1.7845641374588,-.267600297927856
99.693,.590670704841614,-1.75634944438934,-.252952247858047
99.694,.556288540363312,-1.73521637916565,-.239933580160141
99.695,.52781093120575,-1.71900928020477,-.228319644927979
99.696,.503555953502655,-1.70642137527466,-.217939868569374
99.697,.481827259063721,-1.69582200050354,-.20858271420002
99.698,.461839467287064,-1.68627655506134,-.200093641877174
99.69901,.443356662988663,-1.67743515968323,-.192364931106567
99.7,.425941854715347,-1.6687273979187,-.185278028249741
99.701,.409629553556442,-1.66018426418304,-.178766116499901
99.702,.393822193145752,-1.65098118782043,-.172712326049805
99.703,.374232053756714,-1.63756573200226,-.162129193544388
99.704,.355932682752609,-1.62423479557037,-.152369856834412
