Structure Acceleration, RAO-Based Response
Line A: Structure Acceleration, RAO-Based Response - Global RX (Trimaran) [°/s²]
Line B: Structure Acceleration, RAO-Based Response - Global RY (Trimaran) [°/s²]
Line C: Structure Acceleration, RAO-Based Response - Global RZ (Trimaran) [°/s²]

*Time (s),Line A (°/s²),Line B (°/s²),Line C (°/s²)
100,-3.39616388082504E-02,2.03049369156361E-02,3.77454049885273E-02
100.001,-3.39682176709175E-02,1.99609156697989E-02,3.77526357769966E-02
100.002,-3.39747704565525E-02,1.96168813854456E-02,3.77598330378532E-02
100.003,-3.39812375605106E-02,.019275426864624,3.77669371664524E-02
100.004,-.03398771956563,.018931346014142,3.77740561962128E-02
100.005,-.033994160592556,1.85872483998537E-02,3.77811305224895E-02
100.006,-3.40005271136761E-02,1.82457435876131E-02,3.77881228923798E-02
100.007,-3.40069532394409E-02,1.78989991545677E-02,3.77951823174953E-02
100.008,-3.40132899582386E-02,1.75548456609249E-02,3.78021411597729E-02
100.009,-3.40195968747139E-02,1.72106772661209E-02,.037809070199728
100.01,-3.40258181095123E-02,1.68690998107195E-02,3.78159023821354E-02
100.011,-3.40320654213428E-02,1.65248978883028E-02,3.78227606415749E-02
100.012,-3.40382680296898E-02,1.61806829273701E-02,.037829577922821
100.013,-3.40443924069405E-02,1.58390626311302E-02,3.78363020718098E-02
100.014,-3.40505316853523E-02,1.54948160052299E-02,.03784304484725
100.015,-3.40566337108612E-02,1.51505572721362E-02,3.78497429192066E-02
100.016,-3.40626500546932E-02,1.48088904097676E-02,3.78563515841961E-02
100.017,-.034068688750267,1.44646000117064E-02,3.78629788756371E-02
100.018,-3.40746864676476E-02,1.41202993690968E-02,3.78695651888847E-02
100.019,-.034080658107996,1.37759866192937E-02,3.78761254251003E-02
100.02,-3.40865440666676E-02,1.34342741221189E-02,3.78825925290585E-02
100.021,-3.40924821794033E-02,1.30873257294297E-02,3.78891155123711E-02
100.022,-3.40983346104622E-02,1.27429766580462E-02,3.78955416381359E-02
100.023,-.034104123711586,.012401232495904,3.79018969833851E-02
100.024,-3.41099202632904E-02,1.20568629354239E-02,3.79082635045052E-02
100.025,-3.41156832873821E-02,1.17124877870083E-02,3.79145890474319E-02
100.026,-3.41213680803776E-02,.011370544321835,3.79208289086819E-02
100.027,-3.41270640492439E-02,1.10261486843228E-02,3.79270799458027E-02
100.028,-3.41327227652073E-02,1.06817511841655E-02,3.79332937300205E-02
100.029,-3.41383032500744E-02,1.03401262313128E-02,3.79394218325615E-02
100.03,-.034143902361393,9.9957101047039E-03,3.79455648362637E-02
100.031,-.034149456769228,9.65129118412733E-03,3.79516556859016E-02
100.032,-3.41549962759018E-02,9.30686946958304E-03,3.79577353596687E-02
100.033,-3.41604463756084E-02,8.96504335105419E-03,3.79637181758881E-02
100.034,-.034165907651186,8.62060859799385E-03,.037969708442688
100.035,-.034171387553215,8.27356148511171E-03,3.79757173359394E-02
100.036,-3.41767445206642E-02,7.93163850903511E-03,3.79815883934498E-02
100.037,-3.41820977628231E-02,7.58719118312001E-03,3.79874631762505E-02
100.038,-3.41874435544014E-02,7.24273640662432E-03,3.79933193325996E-02
100.039,-3.41927073895931E-02,6.90089631825686E-03,3.79990823566914E-02
100.04,-3.41979712247849E-02,6.55660731717944E-03,3.80048453807831E-02
100.041,-3.42032127082348E-02,6.21215486899018E-03,.038010586053133
100.042,-3.42084243893623E-02,5.8676190674305E-03,.03801628947258
100.043,-3.42135652899742E-02,5.52577804774046E-03,3.80219109356403E-02
100.044,-3.42187099158764E-02,5.18132280558348E-03,.038027536123991
100.045,-3.42238284647465E-02,4.83687315136194E-03,3.80331240594387E-02
100.046,-3.42288725078106E-02,4.49494086205959E-03,3.80386300384998E-02
100.047,-3.42339314520359E-02,4.15057688951492E-03,3.80441546440125E-02
100.048,-3.42389568686485E-02,3.80613305605948E-03,3.80496419966221E-02
100.049,-3.42439562082291E-02,3.46169318072498E-03,3.80550846457481E-02
100.05,-3.42489294707775E-02,3.11717018485069E-03,3.80604974925518E-02
100.051,-3.42538617551327E-02,2.77273496612906E-03,3.80658656358719E-02
100.052,-3.42587642371655E-02,2.42848135530949E-03,3.80711928009987E-02
100.053,-3.42636257410049E-02,2.08658585324883E-03,3.80764678120613E-02
100.054,-3.42685095965862E-02,1.73957308288664E-03,3.80817651748657E-02
100.055,-3.42733412981033E-02,1.39518105424941E-03,3.80869992077351E-02
100.056,-3.42781059443951E-02,1.05339346919209E-03,3.80921512842178E-02
100.057,-.034282885491848,7.09012558218092E-04,3.80973219871521E-02
100.058,-3.42876277863979E-02,3.64475970854983E-04,3.81024368107319E-02
100.059,-3.42923142015934E-02,2.28883200179553E-05,3.81074845790863E-02
100.06,-3.42970155179501E-02,-3.21552564855665E-04,3.81125435233116E-02
100.061,-3.43016870319843E-02,-6.65889529045671E-04,3.81175614893436E-02
100.062,-3.43063026666641E-02,-1.00752105936408E-03,3.81225124001503E-02
100.063,-3.43109630048275E-02,-1.3544395333156E-03,3.81274931132793E-02
100.064,-3.43155600130558E-02,-1.69882236514241E-03,.038132406771183
100.065,-3.43201458454132E-02,-2.04309774562716E-03,3.81372906267643E-02
100.066,-3.43246795237064E-02,-2.3847515694797E-03,3.81421037018299E-02
100.067,-3.43292653560638E-02,-2.73151276633143E-03,3.81469577550888E-02
100.068,-3.43337804079056E-02,-3.07582458481193E-03,3.81517335772514E-02
100.069,-3.43382433056831E-02,-3.41732776723802E-03,3.81564423441887E-02
100.07,-3.43427360057831E-02,-3.76166845671833E-03,3.81611511111259E-02
100.071,-3.43472026288509E-02,-4.10573929548264E-03,3.81658263504505E-02
100.072,-3.43516245484352E-02,-4.44733258336782E-03,3.81704419851303E-02
100.073,-3.43560613691807E-02,-4.79135755449533E-03,3.81750501692295E-02
100.074,-3.43605279922485E-02,-5.13803539797664E-03,3.81796732544899E-02
100.075,-3.43649573624134E-02,-5.48216048628092E-03,3.81842367351055E-02
100.076,-3.43693271279335E-02,-5.82347298040986E-03,3.81887182593346E-02
100.077,-3.43737527728081E-02,-6.17014244198799E-03,3.81932258605957E-02
100.078,-3.43781486153603E-02,-6.51407847180963E-03,.038197685033083
100.079,-3.43825072050095E-02,-6.85536162927747E-03,3.82020808756351E-02
100.08,-3.43869403004646E-02,-7.20173167064786E-03,3.82065288722515E-02
100.081,-3.43913286924362E-02,-7.54555175080895E-03,3.82108874619007E-02
100.082,-3.43957021832466E-02,-7.88669940084219E-03,3.82152087986469E-02
100.083,-3.44001017510891E-02,-8.23049899190664E-03,3.82195189595222E-02
100.084,-3.44045087695122E-02,-8.57406109571457E-03,3.82238030433655E-02
100.085,-3.44089530408382E-02,-8.91774147748947E-03,3.82280834019184E-02
100.086,-3.44133898615837E-02,-9.26127284765244E-03,3.82323153316975E-02
100.087,-3.44178564846516E-02,-9.6047418192029E-03,.038236528635025
100.088,-.034422367811203,-9.95075795799494E-03,3.82407493889332E-02
100.089,-3.44268716871738E-02,-1.02915549650788E-02,3.82448993623257E-02
100.09,-3.44314277172089E-02,-1.06347193941474E-02,3.82490493357182E-02
100.091,-3.44360917806625E-02,-1.09830005094409E-02,3.82532402873039E-02
100.092,-3.44407074153423E-02,-1.13236270844936E-02,3.82573306560516E-02
100.093,-.034445408731699,-1.16665130481124E-02,3.82614322006702E-02
100.094,-3.44502069056034E-02,-1.20119834318757E-02,3.82655523717403E-02
100.095,-3.44550125300884E-02,-1.23522197827697E-02,3.82695943117142E-02
100.096,-3.44599261879921E-02,-1.26949260011315E-02,3.82736586034298E-02
100.097,-3.44649367034435E-02,-1.30397817119956E-02,.038277730345726
100.098,-3.44700366258621E-02,-1.33821526542306E-02,3.82817834615707E-02
100.099,-3.44752334058285E-02,-1.37244528159499E-02,3.82858216762543E-02
100.1,-3.44805493950844E-02,-1.40665210783482E-02,3.82898598909378E-02
100.101,-3.44860218465328E-02,-1.44110387191176E-02,3.82939241826534E-02
100.102,-3.44915762543678E-02,-1.47501602768898E-02,3.82979363203049E-02
100.103,-3.44973355531693E-02,-1.50944050401449E-02,3.83019968867302E-02
100.104,-3.45032401382923E-02,-.015435672365129,3.83060500025749E-02
100.105,-3.45093496143818E-02,-1.57795045524836E-02,3.83101254701614E-02
100.106,-3.45156528055668E-02,-1.61231234669685E-02,3.83142083883286E-02
100.107,-.034522145986557,-1.64638180285692E-02,.038318295031786
100.108,-3.45288701355457E-02,-1.68042667210102E-02,.038322389125824
100.109,-3.45358811318874E-02,-1.71470418572426E-02,3.83265353739262E-02
100.11,-3.45431305468082E-02,-1.74868609756231E-02,3.83306741714478E-02
100.111,-.034550704061985,-1.78291648626328E-02,3.83348651230335E-02
100.112,-3.45585681498051E-02,-1.81685425341129E-02,3.83390709757805E-02
100.113,-3.45667824149132E-02,-1.85074154287577E-02,3.83433029055595E-02
100.114,-.034575380384922,-1.88487321138382E-02,3.83475981652737E-02
100.115,-3.45843508839607E-02,-1.91871430724859E-02,3.83519046008587E-02
100.116,-3.45937721431255E-02,-1.95275079458952E-02,3.83562818169594E-02
100.117,-3.46036590635777E-02,-1.98676232248545E-02,3.83607223629951E-02
100.118,-3.46140079200268E-02,-2.02046986669302E-02,.038365188986063
100.119,-3.46249490976334E-02,-2.05464214086533E-02,3.83697599172592E-02
100.12,-3.46364006400108E-02,-2.08823662251234E-02,3.83743532001972E-02
100.121,-3.46485041081905E-02,-2.12204549461603E-02,3.83790470659733E-02
100.122,-3.46612446010113E-02,-2.15553771704435E-02,3.83838079869747E-02
100.123,-3.46747115254402E-02,-2.18923967331648E-02,3.83886620402336E-02
100.124,-.03468893840909,-2.22287029027939E-02,3.83936055004597E-02
100.125,-3.47039960324764E-02,-2.25644242018461E-02,3.83986569941044E-02
100.126,-3.47199141979218E-02,-2.28993222117424E-02,3.84038016200066E-02
100.127,-3.47367823123932E-02,-2.32335571199656E-02,3.84090803563595E-02
100.128,-3.47546339035034E-02,-2.35643070191145E-02,3.84144634008408E-02
100.129,-3.47736217081547E-02,-2.38970387727022E-02,3.84200029075146E-02
100.13,-3.47937606275082E-02,-2.42285747081041E-02,3.84256727993488E-02
100.131,-3.48151363432407E-02,-2.45566349476576E-02,3.84314954280853E-02
100.132,-3.48379723727703E-02,-2.48914677649736E-02,3.84375303983688E-02
100.133,-3.48621942102909E-02,-2.52197775989771E-02,3.84437143802643E-02
100.134,-3.48879881203175E-02,-2.55472268909216E-02,.038450088351965
100.135,-3.49154956638813E-02,-2.58729606866837E-02,3.84566932916641E-02
100.136,-3.49448174238205E-02,-2.61975601315498E-02,3.84635142982006E-02
100.137,-3.49761284887791E-02,-2.65207067131996E-02,3.84705923497677E-02
100.138,-3.50095517933369E-02,-.026842238381505,3.84779162704945E-02
100.139,-3.50452959537506E-02,-2.71621476858854E-02,3.84855344891548E-02
100.14,-3.50835919380188E-02,-2.74825301021338E-02,3.84934805333614E-02
100.141,-3.51245030760765E-02,-2.77962386608124E-02,3.85017320513725E-02
100.142,-3.51684354245663E-02,-2.81124655157328E-02,3.85103635489941E-02
100.143,-3.52155044674873E-02,-2.84239295870066E-02,3.85193713009357E-02
100.144,-3.52661162614822E-02,-.028735525906086,3.85288298130035E-02
100.145,-3.53203974664211E-02,-2.90391240268946E-02,.038538720458746
100.146,-3.53790111839771E-02,-2.93474830687046E-02,3.85491587221622E-02
100.147,-3.54420728981495E-02,-2.96500455588102E-02,3.85601185262203E-02
100.148,-3.55100445449352E-02,-2.99460217356682E-02,3.85717004537582E-02
100.149,-3.55834700167179E-02,-3.02384290844202E-02,.038583941757679
100.15,-3.56629528105259E-02,-3.05287539958954E-02,3.85969169437885E-02
100.151,-3.57490070164204E-02,-3.08117847889662E-02,3.86107042431831E-02
100.152,-3.58424559235573E-02,-3.10918223112822E-02,3.86253856122494E-02
100.153,-3.59439440071583E-02,-3.13634164631367E-02,3.86410430073738E-02
100.154,-3.60544994473457E-02,-3.16283479332924E-02,3.86578254401684E-02
100.155,-3.61752510070801E-02,-3.18881832063198E-02,3.86758297681808E-02
100.156,-3.63073348999023E-02,-3.21392416954041E-02,3.86952199041843E-02
100.157,-3.64521779119968E-02,-3.23809683322906E-02,3.87161523103714E-02
100.158,-3.66113297641277E-02,-3.26088778674603E-02,3.87388654053211E-02
100.159,-3.67869734764099E-02,-.032827015966177,3.87635566294193E-02
100.16,-.036981426179409,-3.30329202115536E-02,.038790550082922
100.161,-3.71970795094967E-02,-3.32167409360409E-02,3.88202145695686E-02
100.162,-3.74377481639385E-02,-3.33857871592045E-02,3.88528853654861E-02
100.163,-3.77070605754852E-02,-.033528920263052,3.88891324400902E-02
100.164,-3.80098521709442E-02,-3.36412005126476E-02,.038929607719183
100.165,-3.83526086807251E-02,-3.37226204574108E-02,3.89750562608242E-02
100.166,-3.87426912784576E-02,-3.37627045810223E-02,3.90264838933945E-02
100.167,-3.91899980604649E-02,-3.37548404932022E-02,3.90851385891438E-02
100.168,-3.97061072289944E-02,-3.36776897311211E-02,3.91527898609638E-02
100.169,-4.03078608214855E-02,-3.35218496620655E-02,3.92315611243248E-02
100.17,-4.10165786743164E-02,-3.32622677087784E-02,3.93244288861752E-02
100.171,-4.18599657714367E-02,-3.28555032610893E-02,.039435725659132
100.172,-4.28789407014847E-02,-3.22590693831444E-02,3.95712442696095E-02
100.173,-4.41276431083679E-02,-.03138292953372,3.97400036454201E-02
100.174,-4.56858202815056E-02,-3.00994105637074E-02,3.99554371833801E-02
100.175,-.04766546189785,-2.81751845031977E-02,4.02396507561207E-02
100.176,-5.02255707979202E-02,-2.51973737031221E-02,4.06296700239182E-02
100.177,-.05354955047369,-2.03300304710865E-02,4.11931201815605E-02
100.178,-5.76616711914539E-02,-1.18175018578768E-02,4.20572943985462E-02
100.179,-6.11188262701035E-02,4.00701304897666E-03,4.33804579079151E-02
100.18,-5.49461394548416E-02,2.87302304059267E-02,.043766088783741
100.181,-3.19272466003895E-02,5.25948107242584E-02,4.33454103767872E-02
100.182,-7.47444992884994E-03,5.82212395966053E-02,.041521493345499
100.183,6.81548984721303E-03,5.66651448607445E-02,4.05192784965038E-02
100.184,1.44475474953651E-02,5.43271638453007E-02,3.99915836751461E-02
100.185,.018947334960103,5.24873957037926E-02,3.96686643362045E-02
100.186,2.18301694840193E-02,5.11745661497116E-02,3.94552201032639E-02
100.187,2.38063484430313E-02,5.02570196986198E-02,3.93058694899082E-02
100.188,2.52268929034472E-02,4.96418736875057E-02,3.91965694725513E-02
100.189,2.62893848121166E-02,4.92366701364517E-02,3.91142293810844E-02
100.19,2.71048452705145E-02,4.89937476813793E-02,3.90506759285927E-02
100.191,2.77429018169641E-02,4.88756075501442E-02,3.90008166432381E-02
100.192,2.82485149800777E-02,4.88560535013676E-02,3.89612391591072E-02
100.193,2.86521576344967E-02,4.89149540662766E-02,3.89295890927315E-02
100.194,2.89748106151819E-02,4.90387231111526E-02,.038904182612896
100.195,2.92316824197769E-02,4.92156408727169E-02,3.88837717473507E-02
100.196,2.94337403029203E-02,.049438014626503,3.88674214482307E-02
100.197,2.95896735042334E-02,4.96960356831551E-02,3.88544499874115E-02
100.198,2.97050457447767E-02,4.99905571341515E-02,3.88442613184452E-02
100.199,2.97847185283899E-02,5.03173731267452E-02,3.88363786041737E-02
100.2,2.98332758247852E-02,5.06667867302895E-02,3.88304926455021E-02
100.201,2.98537500202656E-02,5.10355196893215E-02,.038826260715723
100.202,2.98474710434675E-02,5.14314658939838E-02,3.88234369456768E-02
100.203,2.98175644129515E-02,5.18420934677124E-02,3.88218201696873E-02
100.204,2.97656040638685E-02,5.22664301097393E-02,3.88212203979492E-02
100.205,2.96923294663429E-02,5.27087412774563E-02,3.88214699923992E-02
100.206,2.95992512255907E-02,5.31645640730858E-02,3.88224385678768E-02
100.207,2.94876806437969E-02,5.36297671496868E-02,3.88240069150925E-02
100.208,2.93582435697317E-02,.054105918854475,3.88260781764984E-02
100.209,2.92113553732634E-02,5.45952022075653E-02,3.88285294175148E-02
100.21,2.90483571588993E-02,.055090706795454,3.88312675058842E-02
100.211,2.88693029433489E-02,5.55976219475269E-02,3.88342402875423E-02
100.212,2.86751016974449E-02,5.61120323836803E-02,3.88373248279095E-02
100.213,.028466884046793,5.66296875476837E-02,3.88405248522758E-02
100.214,2.82448511570692E-02,5.71529343724251E-02,3.88437323272228E-02
100.215,2.80091445893049E-02,.057684738188982,3.88468764722347E-02
100.216,2.77608707547188E-02,5.82207515835762E-02,3.88499312102795E-02
100.217,2.75011360645294E-02,5.87572157382965E-02,3.88528555631638E-02
100.218,2.72297766059637E-02,5.92996217310429E-02,3.88555526733398E-02
100.219,.026948468759656,5.98411038517952E-02,3.88580486178398E-02
100.22,2.66574956476688E-02,6.03842698037624E-02,3.88602428138256E-02
100.221,2.63573154807091E-02,6.09312392771244E-02,3.88621166348457E-02
100.222,2.60497760027647E-02,6.14755786955357E-02,3.88636626303196E-02
100.223,2.57349666208029E-02,6.20222352445126E-02,3.88647802174091E-02
100.224,.02541558817029,6.25615417957306E-02,3.88655811548233E-02
100.225,2.50906459987164E-02,6.31052181124687E-02,3.88658419251442E-02
100.226,2.47631873935461E-02,6.36433809995651E-02,3.88656780123711E-02
100.227,2.44344044476748E-02,6.41778558492661E-02,3.88650223612785E-02
100.228,2.41060983389616E-02,6.47081360220909E-02,.038863867521286
100.229,2.37796530127525E-02,6.52366727590561E-02,3.88621129095554E-02
100.23,2.34585050493479E-02,6.57565668225288E-02,3.88598740100861E-02
100.231,2.31438651680946E-02,.066272608935833,3.88570316135883E-02
100.232,2.28393264114857E-02,.066778339445591,3.88536565005779E-02
100.233,2.25468799471855E-02,.067275658249855,3.88497412204742E-02
100.234,2.22689509391785E-02,6.77643939852715E-02,3.88452522456646E-02
100.235,2.20077093690634E-02,6.82464390993118E-02,3.88401933014393E-02
100.236,2.17672772705555E-02,6.87152668833733E-02,.038834672421217
100.237,2.15500369668007E-02,6.91730231046677E-02,3.88286523520947E-02
100.238,2.13591512292624E-02,6.96191117167473E-02,.038822166621685
100.239,2.11974047124386E-02,7.00557008385658E-02,3.88152189552784E-02
100.24,2.10706274956465E-02,7.04726055264473E-02,3.88080030679703E-02
100.241,.020979892462492,7.08814486861229E-02,3.88003550469875E-02
100.242,2.09317896515131E-02,7.12711736559868E-02,3.87925058603287E-02
100.243,2.09300853312016E-02,7.16440305113792E-02,3.87844666838646E-02
100.244,2.09789983928204E-02,7.20018744468689E-02,.038776271045208
100.245,2.10846457630396E-02,7.23395645618439E-02,3.87680679559708E-02
100.246,2.12534032762051E-02,7.26521164178848E-02,3.87600027024746E-02
100.247,.021490752696991,7.29402080178261E-02,3.87521684169769E-02
100.248,2.18025948852301E-02,7.32042416930199E-02,3.87446247041225E-02
100.249,2.21972856670618E-02,7.34348967671394E-02,3.87376435101032E-02
100.25,2.26816553622484E-02,7.36315101385117E-02,3.87313477694988E-02
100.251,2.32637487351894E-02,7.37892612814903E-02,3.87259386479855E-02
100.252,2.39514019340277E-02,7.39062428474426E-02,.038721602410078
100.253,2.47546937316656E-02,7.39699900150299E-02,.038718655705452
100.254,2.56825629621744E-02,7.39759653806686E-02,3.87173742055893E-02
100.255,2.67444830387831E-02,.073918305337429,3.87180149555206E-02
100.256,.027951605618,7.37772062420845E-02,3.87210212647915E-02
100.257,2.93122231960297E-02,7.35561549663544E-02,3.87267060577869E-02
100.258,.030837083235383,7.32283145189285E-02,3.87355946004391E-02
100.259,3.25344763696194E-02,7.27773010730743E-02,3.87481488287449E-02
100.26,3.44110354781151E-02,7.21878185868263E-02,3.87648642063141E-02
100.261,.036461777985096,7.14549198746681E-02,.038774635642767
100.262,3.86962369084358E-02,7.05476403236389E-02,3.87863963842392E-02
100.263,4.11126874387264E-02,6.94330632686615E-02,3.88025306165218E-02
100.264,4.37026172876358E-02,.068089097738266,3.88236157596111E-02
100.265,4.64512705802918E-02,6.64950534701347E-02,3.88502515852451E-02
100.266,4.93339449167252E-02,6.46205842494965E-02,3.88826914131641E-02
100.267,5.23219704627991E-02,6.24604262411594E-02,3.89216728508472E-02
100.268,5.53739927709103E-02,5.99958971142769E-02,3.89672294259071E-02
100.269,5.84455281496048E-02,5.72319105267525E-02,3.90197485685349E-02
100.27,6.14819154143333E-02,5.41713312268257E-02,.039078775793314
100.271,6.44352063536644E-02,5.08484989404678E-02,3.91446985304356E-02
100.272,6.72519207000732E-02,4.72942441701889E-02,3.92168536782265E-02
100.273,6.98831379413605E-02,4.35514561831951E-02,3.92942205071449E-02
100.274,7.22977668046951E-02,3.96834313869476E-02,3.93766984343529E-02
100.275,7.44694992899895E-02,3.57483848929405E-02,3.94633039832115E-02
100.276,7.64665603637695E-02,3.17077785730362E-02,3.94090861082077E-02
