Structure Acceleration, RAO-Based Response
Line A: Structure Acceleration, RAO-Based Response - Global RX (Trimaran) [°/s²]
Line B: Structure Acceleration, RAO-Based Response - Global RY (Trimaran) [°/s²]
Line C: Structure Acceleration, RAO-Based Response - Global RZ (Trimaran) [°/s²]

*Time (s),Line A (°/s²),Line B (°/s²),Line C (°/s²)
99.7,-6.84464573860168E-02,2.25458407402039,.074439100921154
99.701,-6.84390664100647E-02,2.2535297870636,7.44313448667526E-02
99.702,-6.84316158294678E-02,2.25245833396912,7.44232460856438E-02
99.703,-6.84242397546768E-02,2.25138783454895,7.44149312376976E-02
99.70399,-6.84168413281441E-02,2.25030064582825,.074406310915947
99.70499,-6.84091150760651E-02,2.24921464920044,7.43974521756172E-02
99.70599,-6.84012547135353E-02,2.24811148643494,7.43882805109024E-02
99.707,-.068393312394619,2.24700045585632,7.43788108229637E-02
99.708,-6.83854296803474E-02,2.24588990211487,7.43691250681877E-02
99.709,-.068377360701561,2.2447624206543,7.43591412901878E-02
99.71,-.06836898624897,2.2436363697052,7.43489563465118E-02
99.711,-6.83604776859283E-02,2.24249291419983,7.43384063243866E-02
99.712,-6.83517530560493E-02,2.24134159088135,7.43276104331017E-02
99.713,-6.83432221412659E-02,2.24018287658691,7.43164867162704E-02
99.714,-6.83344975113869E-02,2.23902416229248,7.43052214384079E-02
99.715,-6.83256015181541E-02,2.23784899711609,7.42935985326767E-02
99.716,-6.83169215917587E-02,2.23667550086975,.07428178191185
99.717,-6.83077797293663E-02,2.23547410964966,7.42695108056068E-02
99.71799,-6.82987347245216E-02,2.2342848777771,7.42571651935577E-02
99.71899,-6.82893693447113E-02,2.23307776451111,7.42444023489952E-02
99.71999,-6.82800784707069E-02,2.23187208175659,7.42315426468849E-02
99.721,-6.82702660560608E-02,2.23063921928406,7.42181539535522E-02
99.722,-.068260669708252,2.22940802574158,7.42046311497688E-02
99.723,-6.82510063052177E-02,2.22817921638489,7.41909220814705E-02
99.724,-6.82409629225731E-02,2.22692227363586,7.41767585277557E-02
99.725,-6.82310909032822E-02,2.22567701339722,7.41625130176544E-02
99.726,-6.82209506630898E-02,2.22441387176514,7.41478875279427E-02
99.727,-6.82107955217361E-02,2.22314310073853,7.41330087184906E-02
99.728,-.06820048391819,2.22186422348022,7.41178467869759E-02
99.729,-6.81900978088379E-02,2.22058773040771,7.41025358438492E-02
99.73,-6.81794732809067E-02,2.21928215026855,7.40866959095001E-02
99.731,-.068168893456459,2.2179901599884,7.40708112716675E-02
99.73199,-6.81581646203995E-02,2.2166690826416,.074054442346096
99.73299,-6.81472569704056E-02,2.21536111831665,.074038065969944
99.73399,-6.81362897157669E-02,2.21404528617859,7.40214362740517E-02
99.735,-.06812484562397,2.21268963813782,7.40040838718414E-02
99.736,-6.81137517094612E-02,2.21135783195496,7.39869326353073E-02
99.737,-6.81021511554718E-02,2.20999670028687,7.39691853523254E-02
99.738,-6.80908858776093E-02,2.20864963531494,7.39514604210854E-02
99.739,-6.80791363120079E-02,2.20727252960205,7.39332064986229E-02
99.74,-6.80674538016319E-02,2.20590925216675,7.39149004220963E-02
99.741,-.068055622279644,2.20451688766479,.073896087706089
99.742,-6.80436640977859E-02,2.20312666893005,7.38771110773087E-02
99.743,-6.80316835641861E-02,2.20172929763794,7.38578960299492E-02
99.744,-6.80193826556206E-02,2.2003219127655,7.38384053111076E-02
99.745,-6.80073276162148E-02,2.19892048835754,7.38188028335571E-02
99.74599,-6.79946914315224E-02,2.19748759269714,7.37986341118813E-02
99.74699,-6.79821074008942E-02,2.19605875015259,7.37783461809158E-02
99.74799,-6.79695308208466E-02,2.19462156295776,7.37577974796295E-02
99.749,-6.79566860198975E-02,2.19316506385803,7.37367868423462E-02
99.75,-6.79436922073364E-02,2.19171190261841,7.37156867980957E-02
99.751,-6.79307654500008E-02,2.19025206565857,7.36943334341049E-02
99.752,-6.79173618555069E-02,2.18877220153809,7.36725330352783E-02
99.753,-6.79041519761086E-02,2.18729591369629,7.36506208777428E-02
99.754,-6.78905844688416E-02,2.18581175804138,7.36284628510475E-02
99.755,-.067876935005188,2.18431973457336,7.36060440540314E-02
99.756,-6.78632631897926E-02,2.1828076839447,7.35831186175346E-02
99.757,-6.78493827581406E-02,2.18129992485046,7.35601708292961E-02
99.758,-6.78357481956482E-02,2.17979693412781,.073537141084671
99.759,-6.78212717175484E-02,2.17826080322266,7.35134333372116E-02
99.75999,-6.78070038557053E-02,2.1767303943634,7.34896436333656E-02
99.76099,-6.77923709154129E-02,2.17517900466919,7.34654292464256E-02
99.76199,-6.77779391407967E-02,2.17363214492798,7.34411105513573E-02
99.763,-.067763201892376,2.17206597328186,7.34163671731949E-02
99.764,-6.77483826875687E-02,2.17050313949585,.073391504585743
99.765,-6.77332431077957E-02,2.16892027854919,7.33662024140358E-02
99.766,-6.77184164524078E-02,2.16734123229981,7.33407810330391E-02
99.767,-6.77030682563782E-02,2.16574239730835,7.33149275183678E-02
99.768,-6.76879212260246E-02,2.16414880752563,7.32890143990517E-02
99.769,-6.76723048090935E-02,2.1625349521637,7.32626244425774E-02
99.77,-6.76568523049355E-02,2.16092610359192,7.32361972332001E-02
99.771,-6.76411762833595E-02,2.15930867195129,7.32094720005989E-02
99.772,-6.76251798868179E-02,2.15767168998718,7.31822848320007E-02
99.77299,-6.76093250513077E-02,2.15605282783508,7.31552764773369E-02
99.77399,-6.75929561257362E-02,2.15439891815186,7.31275826692581E-02
99.77499,-6.75767660140991E-02,2.15275120735168,.073099821805954
99.77599,-6.75600990653038E-02,2.15108251571655,7.30715692043304E-02
99.777,-6.75432309508324E-02,2.14939212799072,7.30428323149681E-02
99.778,-6.75262957811356E-02,2.14770746231079,7.30140134692192E-02
99.779,-6.75095394253731E-02,2.14602875709534,7.29851722717285E-02
99.78,-6.74926191568375E-02,2.14432883262634,.072955846786499
99.781,-6.74755871295929E-02,2.14263510704041,7.29264914989471E-02
99.782,-6.74583315849304E-02,2.14091920852661,7.28966295719147E-02
99.783,-6.74410462379456E-02,2.13920855522156,7.28667452931404E-02
99.784,-6.74236640334129E-02,2.13749098777771,7.28366002440453E-02
99.785,-6.74058124423027E-02,2.13575267791748,7.28059187531471E-02
99.786,-6.73881247639656E-02,2.13401985168457,7.27752521634102E-02
99.78699,-6.73699080944061E-02,2.13225173950195,7.27438181638718E-02
99.78799,-6.73519223928452E-02,2.13050389289856,.072712630033493
99.78899,-6.73336461186409E-02,2.12873435020447,7.26809129118919E-02
99.78999,-.067315399646759,2.12697052955627,7.26491585373878E-02
99.791,-6.72964975237846E-02,2.12517094612122,7.26166814565659E-02
99.792,-6.72777965664864E-02,2.12337803840637,7.25841596722603E-02
99.793,-6.72587752342224E-02,2.12157702445984,7.25513622164726E-02
99.794,-6.72399625182152E-02,2.11978268623352,7.25185722112656E-02
99.795,-6.72209784388542E-02,2.11798214912415,7.24855363368988E-02
99.796,-6.72012865543365E-02,2.11614298820496,7.24516957998276E-02
99.797,-6.71820119023323E-02,2.11432552337646,7.24181309342384E-02
99.798,-6.71624839305878E-02,2.11248683929443,7.23840147256851E-02
99.799,-6.71427100896835E-02,2.11063981056213,7.23496526479721E-02
99.8,-6.71227872371674E-02,2.10878539085388,7.23150297999382E-02
99.80099,-6.71029761433601E-02,2.10693836212158,7.22804367542267E-02
99.80199,-6.70824199914932E-02,2.10505366325378,7.22450092434883E-02
99.80299,-6.70623630285263E-02,2.10319042205811,.072209857404232
99.80399,-6.70417696237564E-02,2.10130548477173,7.21741765737534E-02
99.805,-6.70206546783447E-02,2.09939789772034,7.21379742026329E-02
99.806,-6.69998526573181E-02,2.09749722480774,.072101779282093
99.807,-6.69786185026169E-02,2.09558916091919,7.20653086900711E-02
99.808,-6.69575557112694E-02,2.09368896484375,7.20288753509521E-02
99.809,-6.69361725449562E-02,2.0917501449585,7.19915851950645E-02
99.81,-6.69147372245789E-02,2.08983445167542,7.19546526670456E-02
99.811,-6.68927952647209E-02,2.0878803730011,.071916826069355
99.812,-6.68714493513107E-02,2.08595108985901,7.18793645501137E-02
99.813,-6.68492838740349E-02,2.08398175239563,7.18410387635231E-02
99.814,-6.68275356292725E-02,2.082035779953,7.18030631542206E-02
99.81499,-6.68050646781921E-02,2.08005142211914,7.17641934752464E-02
99.81599,-6.67830184102058E-02,2.07809114456177,7.17256665229797E-02
99.81699,-6.67601004242897E-02,2.07609152793884,7.16862753033638E-02
99.81799,-.066737562417984,2.07411599159241,7.16472864151001E-02
99.819,-6.67142868041992E-02,2.07208514213562,7.16070458292961E-02
99.82,-6.66913911700249E-02,2.07007813453674,7.15671852231026E-02
99.821,-6.66686445474625E-02,2.06807994842529,7.15273693203926E-02
99.822,-6.66448846459389E-02,2.06604218482971,.071486696600914
99.823,-6.66214823722839E-02,2.06401300430298,7.14460238814354E-02
99.824,-6.65979385375977E-02,2.06197619438171,7.14051499962807E-02
99.825,-6.65741041302681E-02,2.05993223190308,7.13639929890633E-02
99.826,-6.65497928857803E-02,2.05786418914795,7.13222399353981E-02
99.827,-6.65258541703224E-02,2.05582118034363,7.12809264659882E-02
99.828,-6.65014311671257E-02,2.05373811721802,7.12386667728424E-02
99.82899,-6.64770379662514E-02,2.05166387557983,7.11964517831802E-02
99.82999,-6.64522349834442E-02,2.049565076828,7.11536556482315E-02
99.83099,-6.64277225732803E-02,2.04749250411987,7.11112916469574E-02
99.832,-6.64019286632538E-02,2.0453622341156,7.10676610469818E-02
99.833,-6.63769096136093E-02,2.04325914382935,7.10244998335838E-02
99.834,-6.63516893982887E-02,2.04114770889282,7.09810107946396E-02
99.835,-6.63259401917458E-02,2.03901195526123,7.09369406104088E-02
99.836,-6.63005784153938E-02,2.03690218925476,7.08932802081108E-02
99.837,-6.62743747234344E-02,2.03475117683411,7.08486884832382E-02
99.838,-6.62485659122467E-02,2.03261017799377,7.08041936159134E-02
99.839,-6.62222430109978E-02,2.03044366836548,.070759080350399
99.84,-6.61960393190384E-02,2.02828741073608,.070714071393013
99.841,-6.61690309643745E-02,2.02610659599304,7.06684291362762E-02
99.842,-6.61424621939659E-02,2.0239360332489,7.06229135394096E-02
99.84299,-6.61152675747871E-02,2.02173972129822,7.05767795443535E-02
99.84399,-6.60881102085114E-02,2.01955389976501,7.05307424068451E-02
99.84499,-6.60606175661087E-02,2.01734399795532,7.04841092228889E-02
99.846,-6.60330578684807E-02,2.01512575149536,7.04371780157089E-02
99.847,-6.60053640604019E-02,2.0129177570343,7.03904032707214E-02
99.848,-6.59773796796799E-02,2.01068472862244,7.03429579734802E-02
99.849,-6.59496635198593E-02,2.00846195220947,7.02956467866898E-02
99.85,-6.59212172031403E-02,2.00621461868286,7.02477246522903E-02
99.851,-6.58931657671929E-02,2.00397920608521,7.01999291777611E-02
99.852,-6.58642873167992E-02,2.00171589851379,7.01514631509781E-02
99.853,-6.58359229564667E-02,1.99946403503418,7.01031610369682E-02
99.854,-6.58068358898163E-02,1.99718725681305,7.00542032718658E-02
99.855,-6.57779723405838E-02,1.99492073059082,7.00053423643112E-02
99.856,-6.57486245036125E-02,1.99262869358063,6.99559077620506E-02
99.85699,-6.57193437218666E-02,1.99034810066223,6.99065923690796E-02
99.85799,-6.56894892454147E-02,1.98804187774658,6.98566436767578E-02
99.85899,-6.56594336032867E-02,1.98572790622711,6.98064044117928E-02
99.86,-.065629169344902,1.9834052324295,.069755919277668
99.861,-6.55989423394203E-02,1.98107671737671,6.97051659226418E-02
99.862,-6.55688047409058E-02,1.97875964641571,6.96545764803886E-02
99.863,-.065538115799427,1.9764164686203,6.96033388376236E-02
99.864,-6.55073523521423E-02,1.9740663766861,6.95518553256989E-02
99.865,-6.54763504862785E-02,1.97170877456665,6.95001035928726E-02
99.866,-6.54456913471222E-02,1.96936249732971,6.94485157728195E-02
99.867,-6.54143840074539E-02,1.96699118614197,6.93963170051575E-02
99.868,-6.53826966881752E-02,1.96461093425751,6.93437829613686E-02
99.869,-6.53510391712189E-02,1.96222305297852,6.92909881472588E-02
99.87,-6.53196647763252E-02,1.9598480463028,6.92384168505669E-02
99.87099,-6.52871280908585E-02,1.95742809772491,6.91847279667854E-02
99.87199,-6.52552023530007E-02,1.95503902435303,6.91316425800323E-02
99.87299,-6.52230978012085E-02,1.95264220237732,.069078303873539
99.874,-6.51897266507149E-02,1.95018100738525,6.90234825015068E-02
99.875,-6.51572868227959E-02,1.94776952266693,6.89696297049522E-02
99.876,-6.51237964630127E-02,1.94531238079071,6.89147040247917E-02
99.877,-6.50911182165146E-02,1.94288742542267,6.88603669404984E-02
99.878,-6.50576204061508E-02,1.94043600559235,6.88053667545319E-02
99.879,-6.50239586830139E-02,1.93797719478607,6.87501206994057E-02
99.88,-6.49900212883949E-02,1.93551123142242,6.86946287751198E-02
99.881,-6.49559870362282E-02,1.93303894996643,6.86388835310936E-02
99.882,-6.49219751358032E-02,1.93055891990662,6.85829073190689E-02
99.883,-6.48876205086708E-02,1.92807173728943,6.85266777873039E-02
99.884,-6.48536160588264E-02,1.92559707164764,6.84705898165703E-02
99.88499,-6.48186132311821E-02,1.92307496070862,6.84134215116501E-02
99.88599,-.064784049987793,1.92058670520782,.0683568790555
99.88699,-6.47484734654427E-02,1.91805076599121,6.82991817593575E-02
99.888,-6.47126212716103E-02,1.91550755500793,6.82412683963776E-02
99.889,-6.46772757172585E-02,1.91297698020935,.068183533847332
99.89,-6.46416619420052E-02,1.91043984889984,6.81255534291267E-02
99.891,-6.46056532859802E-02,1.90789580345154,.068067342042923
99.892,-6.45694732666016E-02,1.90534400939941,6.80088773369789E-02
99.893,-6.45327717065811E-02,1.90276539325714,6.79497122764587E-02
99.894,-6.44966065883636E-02,1.90022075176239,6.78912103176117E-02
99.895,-6.44593685865402E-02,1.89762783050537,6.78315386176109E-02
99.896,-6.44224807620049E-02,1.89504837989807,6.77720904350281E-02
99.897,-6.43854662775993E-02,1.89246189594269,6.77124112844467E-02
99.89799,-6.43482357263565E-02,1.88986849784851,6.76524788141251E-02
99.89899,-6.43109008669853E-02,1.8872674703598,6.75923004746437E-02
99.89999,-6.42726719379425E-02,1.88463938236237,6.75313919782639E-02
99.90099,-6.42349198460579E-02,1.88202488422394,6.74707293510437E-02
99.902,-6.41964823007584E-02,1.87938272953033,.067409336566925
99.903,-6.41583055257797E-02,1.87675440311432,6.73481971025467E-02
99.904,-6.41194880008698E-02,1.87409830093384,6.72863125801086E-02
99.905,-6.40807673335075E-02,1.87145602703095,6.72246813774109E-02
99.906,-6.40414655208588E-02,1.86878526210785,6.71622976660728E-02
99.907,-6.40024393796921E-02,1.86612915992737,6.71001970767975E-02
99.908,-6.39626234769821E-02,1.86344444751739,6.70373365283012E-02
99.909,-6.39237314462662E-02,1.86079561710358,6.69751912355423E-02
99.91,-6.38841912150383E-02,1.85811901092529,6.69123753905296E-02
99.911,-.0638437718153,1.85541391372681,6.68487995862961E-02
99.91199,-6.38036802411079E-02,1.85272324085236,6.67854622006416E-02
99.91299,-6.37627243995667E-02,1.85000455379486,6.67214244604111E-02
99.91399,-.063722275197506,1.84729957580566,.066657617688179
99.91499,-6.36811405420303E-02,1.84456694126129,6.65930658578873E-02
99.916,-6.36396780610085E-02,1.84182715415955,.066528283059597
99.917,-6.35979250073433E-02,1.83907985687256,6.64632543921471E-02
99.918,-6.35566785931587E-02,1.83634841442108,.066398523747921
99.919,-6.35146871209145E-02,1.83358824253082,6.63329884409904E-02
99.92,-6.34727478027344E-02,1.83084380626678,6.62677735090256E-02
99.921,-.06342963129282,1.82804811000824,.066201277077198
99.922,-6.33875876665115E-02,1.82528805732727,6.61355778574944E-02
99.923,-6.33453279733658E-02,1.8225222826004,6.60696178674698E-02
99.924,-6.33020102977753E-02,1.81972801685333,6.60029277205467E-02
99.925,-6.32591396570206E-02,1.81694853305817,.065936490893364
99.92599,-6.32156506180763E-02,1.8141405582428,6.58693388104439E-02
99.92699,-.063172422349453,1.81134843826294,6.58024623990059E-02
99.92799,-6.31278604269028E-02,1.80850303173065,6.57342523336411E-02
99.92899,-6.30841851234436E-02,1.80569708347321,6.56668841838837E-02
99.93,-6.30391463637352E-02,1.80283951759338,6.55982345342636E-02
99.931,-6.29951953887939E-02,1.80002105236053,6.55304193496704E-02
99.932,-6.29498362541199E-02,1.79714977741241,6.54612854123116E-02
99.933,-6.29052370786667E-02,1.79431521892548,6.53929561376572E-02
99.934,-.062860481441021,1.79147577285767,6.53244405984879E-02
99.935,-6.28143176436424E-02,1.78858435153961,6.52545988559723E-02
99.936,-6.27691894769669E-02,1.78573143482208,6.51855915784836E-02
99.937,-.062723197042942,1.78284871578217,6.51158019900322E-02
99.938,-6.26770928502083E-02,1.77996003627777,6.50458112359047E-02
99.939,-6.26306608319283E-02,1.77706336975098,6.49755448102951E-02
99.93999,-6.25846162438393E-02,1.77418386936188,6.49056136608124E-02
99.94099,-6.25371560454369E-02,1.77125179767609,.064834326505661
99.94199,-.062490563839674,1.76836025714874,6.47639855742455E-02
99.94299,-6.24428391456604E-02,1.76541447639465,6.46922588348389E-02
99.944,-6.23953714966774E-02,1.76248550415039,6.46208375692368E-02
99.945,-6.23469427227974E-02,1.75952649116516,6.45486265420914E-02
99.946,-6.22995160520077E-02,1.75660705566406,.064477302134037
99.947,-6.22514113783836E-02,1.75365841388702,6.44052028656006E-02
99.948,-6.22030347585678E-02,1.75070357322693,6.43328651785851E-02
99.949,-6.21543824672699E-02,1.74774098396301,.064260296523571
99.95,-6.21055960655212E-02,1.74477255344391,6.41874969005585E-02
99.951,-6.20564185082913E-02,1.74179744720459,6.41144439578056E-02
99.952,-6.20065443217754E-02,1.73879301548004,6.40406385064125E-02
99.953,-6.19576200842857E-02,1.73582816123962,6.39677196741104E-02
99.95399,-6.19072429835796E-02,1.73280954360962,6.38934075832367E-02
99.95499,-6.18578344583511E-02,1.72983169555664,.06382005661726
99.95599,-6.18070885539055E-02,1.7267998456955,6.37452751398087E-02
99.957,-6.17561750113964E-02,1.72376179695129,6.36702701449394E-02
99.958,-6.17049224674702E-02,1.72071754932404,6.35950639843941E-02
99.959,-6.16546720266342E-02,1.71771383285522,6.35207965970039E-02
99.96,-6.16035163402557E-02,1.71468019485474,6.34456947445869E-02
99.961,-6.15515783429146E-02,1.71161508560181,6.33697658777237E-02
99.962,-6.15001991391182E-02,1.70856964588165,6.32942467927933E-02
99.963,-6.14484176039696E-02,1.70551669597626,6.32185041904449E-02
99.964,-6.13964572548866E-02,1.70245695114136,6.31424859166145E-02
99.965,-6.13436289131641E-02,1.6993670463562,6.30656555294991E-02
99.966,-6.12911246716976E-02,1.6962947845459,.062989205121994
99.967,-.061237882822752,1.69319212436676,6.29119500517845E-02
99.96799,-6.11849166452885E-02,1.69010651111603,6.28350302577019E-02
99.96899,-6.11309558153153E-02,1.68699061870575,6.27573132514954E-02
99.96999,-6.10774680972099E-02,1.68389296531677,6.26799464225769E-02
99.971,-6.10225312411785E-02,1.680739402771,.062601163983345
99.972,-6.09685964882374E-02,1.67762911319733,6.25233575701714E-02
99.973,-6.09145686030388E-02,1.67451238632202,6.24453574419022E-02
99.974,-6.08596093952656E-02,1.67136514186859,.062366496771574
99.975,-6.08050003647804E-02,1.66823422908783,6.22880235314369E-02
99.976,-6.07496500015259E-02,1.66507411003113,.062208715826273
99.977,-.060694694519043,1.66193211078644,6.21298104524612E-02
99.978,-6.06387220323086E-02,1.65875911712646,6.20500333607197E-02
99.979,-6.05832301080227E-02,1.65560472011566,6.19707144796848E-02
99.98,-6.05269111692905E-02,1.65241777896881,6.18904866278172E-02
99.981,-6.04702197015286E-02,1.64922714233398,.061810091137886
99.98199,-6.04132115840912E-02,1.64602887630463,6.17294572293758E-02
99.98299,-6.03567883372307E-02,1.6428496837616,6.16492331027985E-02
99.98399,-6.02994859218597E-02,1.63963854312897,6.15681521594524E-02
99.985,-.060242023319006,1.63642144203186,6.14868625998497E-02
99.986,-6.01842142641544E-02,1.63319826126099,6.14053420722485E-02
99.987,-6.01260773837566E-02,1.62996912002563,.061323594301939
99.988,-6.00683577358723E-02,1.62675774097443,6.12422600388527E-02
99.989,-6.00091814994812E-02,1.62349224090576,6.11595027148724E-02
99.99,-5.99511452019215E-02,1.62026917934418,6.10777325928211E-02
99.991,-5.98914735019207E-02,1.61698949337006,6.09944649040699E-02
99.992,-5.98329566419125E-02,1.61375439167023,6.09122663736343E-02
99.993,-5.97734525799751E-02,1.61048769950867,6.08292333781719E-02
99.994,-5.97136579453945E-02,1.60721457004547,6.07459358870983E-02
99.995,-5.96536733210087E-02,1.60393583774567,6.06624409556389E-02
