Structure Acceleration, RAO-Based Response
Line A: Structure Acceleration, RAO-Based Response - Global RX (Trimaran) [°/s²]
Line B: Structure Acceleration, RAO-Based Response - Global RY (Trimaran) [°/s²]
Line C: Structure Acceleration, RAO-Based Response - Global RZ (Trimaran) [°/s²]

*Time (s),Line A (°/s²),Line B (°/s²),Line C (°/s²)
99.7,-7.52748399972916E-02,2.57580089569092,8.15471634268761E-02
99.701,-7.52751305699348E-02,2.57511281967163,8.15449580550194E-02
99.702,-7.52753391861916E-02,2.57440972328186,.081542395055294
99.703,-7.52751305699348E-02,2.5737030506134,8.15395936369896E-02
99.70399,-7.52749145030975E-02,2.57298135757446,8.15364420413971E-02
99.70499,-7.52745047211647E-02,2.57225704193115,8.15330371260643E-02
99.70599,-7.52740651369095E-02,2.5715172290802,8.15293416380882E-02
99.707,-7.52736255526543E-02,2.57076811790466,8.15252959728241E-02
99.708,-7.52729997038841E-02,2.5700159072876,8.15210267901421E-02
99.709,-7.52720236778259E-02,2.56924867630005,8.15163850784302E-02
99.71,-7.52711072564125E-02,2.56847906112671,.081511527299881
99.711,-7.52698630094528E-02,2.56769323348999,8.15063193440437E-02
99.712,-7.52685368061066E-02,2.56689858436584,8.15008133649826E-02
99.713,-7.52672776579857E-02,2.56609439849854,.081494964659214
99.714,-7.52659067511559E-02,2.56528830528259,8.14889296889305E-02
99.715,-.075264573097229,2.56446576118469,8.14825147390366E-02
99.716,-7.52628073096275E-02,2.56364107131958,8.14758688211441E-02
99.717,-7.52608552575111E-02,2.56280040740967,8.14688578248024E-02
99.71799,-7.52589330077171E-02,2.56195044517517,8.14615488052368E-02
99.71899,-7.52569139003754E-02,2.56109189987183,8.14539715647697E-02
99.71999,-7.52546936273575E-02,2.56023120880127,8.14461633563042E-02
99.721,-7.52523615956306E-02,2.55935382843018,8.14379751682281E-02
99.722,-7.52496272325516E-02,2.55845999717712,8.14293846487999E-02
99.723,-7.52467811107635E-02,2.55757141113281,8.14207121729851E-02
99.724,-7.52439349889755E-02,2.55666637420654,8.14116224646568E-02
99.725,-7.52409696578979E-02,2.55575299263,8.14022347331047E-02
99.726,-7.52380788326263E-02,2.55483031272888,8.13925638794899E-02
99.727,-7.52347111701965E-02,2.55390620231628,8.13827067613602E-02
99.728,-7.52313509583473E-02,2.55296492576599,8.13724622130394E-02
99.729,-.07522813975811,2.55201411247253,8.13618674874306E-02
99.73,-7.52243772149086E-02,2.55105495452881,8.13509970903397E-02
99.731,-7.52206072211266E-02,2.55008673667908,8.13398659229279E-02
99.73199,-.075216643512249,2.54910898208618,8.13284143805504E-02
99.73299,-7.52127170562744E-02,2.54813027381897,8.13167840242386E-02
99.73399,-7.52083510160446E-02,2.54713439941406,8.13047289848328E-02
99.735,-.075203649699688,2.54612135887146,8.12922865152359E-02
99.736,-7.51991495490074E-02,2.54510736465454,8.12797024846077E-02
99.737,-7.51946344971657E-02,2.54408359527588,8.12667310237885E-02
99.738,-7.51900598406792E-02,2.54305219650269,8.12535434961319E-02
99.739,-7.51850455999374E-02,2.54201078414917,8.12400281429291E-02
99.74,-7.51801282167435E-02,2.54096007347107,8.12261998653412E-02
99.741,-7.51749649643898E-02,2.53989911079407,.08121208101511
99.742,-7.51696899533272E-02,2.53883099555969,.081197664141655
99.743,-7.51645341515541E-02,2.53775310516357,8.11829715967178E-02
99.744,-7.51590505242348E-02,2.53666663169861,8.11679512262344E-02
99.745,-7.51535296440125E-02,2.53557944297791,8.11527967453003E-02
99.74599,-7.51478746533394E-02,2.53446578979492,8.11370983719826E-02
99.74699,-7.51420259475708E-02,2.53336071968079,8.11213180422783E-02
99.74799,-7.51360282301903E-02,2.53222894668579,8.11050236225128E-02
99.749,-7.51296952366829E-02,2.53109669685364,8.10885801911354E-02
99.75,-7.51232579350471E-02,2.52994608879089,8.10716971755028E-02
99.751,-7.51166790723801E-02,2.52879571914673,8.10546204447746E-02
99.752,-7.51101300120354E-02,2.52763438224792,8.10372084379196E-02
99.753,-7.51032903790474E-02,2.52646589279175,8.10195580124855E-02
99.754,-7.50959739089012E-02,2.52527904510498,8.10014829039574E-02
99.755,-7.50891119241714E-02,2.52410244941711,8.09834226965904E-02
99.756,-7.50817880034447E-02,2.52289700508118,8.09647366404533E-02
99.757,-7.50743448734283E-02,2.52169275283813,8.09459164738655E-02
99.758,-7.50667527318001E-02,2.52048850059509,8.09269696474075E-02
99.759,-7.50590488314629E-02,2.51925587654114,8.09073895215988E-02
99.75999,-7.50514566898346E-02,2.51802468299866,8.08876901865005E-02
99.76099,-7.50436261296272E-02,2.51677346229553,8.08675363659859E-02
99.76199,-7.50358551740646E-02,2.51553297042847,8.08473527431488E-02
99.763,-7.50275105237961E-02,2.51425385475159,8.08264687657356E-02
99.764,-.075019046664238,2.5129861831665,8.08055698871613E-02
99.765,-7.50102922320366E-02,2.51169943809509,8.07842537760735E-02
99.766,-7.50018432736397E-02,2.51042366027832,8.07629451155663E-02
99.767,-7.49929994344711E-02,2.50911831855774,8.07410478591919E-02
99.768,-.074984036386013,2.50781440734863,8.07189643383026E-02
99.769,-.074974924325943,2.50649118423462,8.06964859366417E-02
99.77,-7.49657154083252E-02,2.50516891479492,8.06738287210464E-02
99.771,-.074956551194191,2.5038378238678,8.06509032845497E-02
99.772,-7.49469697475433E-02,2.50248718261719,8.06275010108948E-02
99.77299,-.074937604367733,2.50114941596985,8.06041434407234E-02
99.77399,-7.49278664588928E-02,2.49978065490723,8.05801451206207E-02
99.77499,-.074917808175087,2.49841475486755,8.05560797452927E-02
99.77599,-7.49078094959259E-02,2.49702787399292,8.05315226316452E-02
99.777,-7.48974680900574E-02,2.4956316947937,8.05066227912903E-02
99.778,-7.48867243528366E-02,2.49422717094421,8.04814696311951E-02
99.779,-.074876107275486,2.49282431602478,8.04561823606491E-02
99.78,-7.48650804162025E-02,2.4914014339447,8.04304480552673E-02
99.781,-7.48545750975609E-02,2.48998069763184,8.04045870900154E-02
99.782,-7.48433098196983E-02,2.48853969573975,8.03782641887665E-02
99.783,-7.48322159051895E-02,2.48710131645203,8.03518146276474E-02
99.784,-7.48208165168762E-02,2.48565316200256,8.03250893950462E-02
99.785,-7.48092159628868E-02,2.48418498039246,8.02978500723839E-02
99.786,-7.47976526618004E-02,2.48271989822388,8.02705362439156E-02
99.78699,-7.47856870293617E-02,2.48123359680176,8.02427604794502E-02
99.78799,-7.47738257050514E-02,2.47975063323975,8.02148655056953E-02
99.78899,-7.47617706656456E-02,2.47824692726135,8.01864787936211E-02
99.78999,-7.47494772076607E-02,2.47673201560974,8.01577568054199E-02
99.791,-7.47367814183235E-02,2.4751980304718,.08012855052948
99.792,-7.47242122888565E-02,2.47367906570435,.080099493265152
99.793,-7.47115314006805E-02,2.47213935852051,8.00699442625046E-02
99.794,-7.46988877654076E-02,2.47060298919678,8.00403133034706E-02
99.795,-7.46860951185226E-02,2.46905755996704,8.00104215741158E-02
99.796,-7.46726244688034E-02,2.46748971939087,7.99799412488937E-02
99.797,-7.46593996882439E-02,2.46591353416443,7.99492076039314E-02
99.798,-7.46458023786545E-02,2.46432876586914,7.99181908369064E-02
99.799,-7.46322870254517E-02,2.4627480506897,7.98871293663979E-02
99.8,-7.46180936694145E-02,2.46114587783813,7.98555612564087E-02
99.80099,-.074603945016861,2.45953297615051,7.98236206173897E-02
99.80199,-7.45895281434059E-02,2.45791244506836,7.97914639115334E-02
99.80299,-7.45752230286598E-02,2.45629620552063,7.97592326998711E-02
99.80399,-7.45606571435928E-02,2.4546582698822,7.97264873981476E-02
99.805,-7.45458528399467E-02,2.45299768447876,7.96931684017181E-02
99.806,-7.45309218764305E-02,2.45134162902832,7.96598270535469E-02
99.807,-7.45163336396217E-02,2.44968867301941,7.96264484524727E-02
99.808,-7.45012015104294E-02,2.44801425933838,7.95925259590149E-02
99.809,-7.44858980178833E-02,2.44633150100708,7.95583054423332E-02
99.81,-7.44705051183701E-02,2.44465327262878,7.95240625739098E-02
99.811,-7.44545459747314E-02,2.44293928146362,7.94889852404594E-02
99.812,-.074438750743866,2.44124293327332,7.94541910290718E-02
99.813,-7.44226723909378E-02,2.43952512741089,7.94188156723976E-02
99.814,-7.44066312909126E-02,2.43779730796814,7.93831646442413E-02
99.81499,-7.43902772665024E-02,2.4360613822937,7.93472304940224E-02
99.81599,-.074373759329319,2.43431448936462,7.93109461665154E-02
99.81699,-7.43571743369102E-02,2.43256139755249,.079274445772171
99.81799,-7.43401870131493E-02,2.43079876899719,7.92376399040222E-02
99.819,-7.43227079510689E-02,2.4290132522583,7.92002305388451E-02
99.82,-7.43053629994392E-02,2.42723250389099,7.91628733277321E-02
99.821,-7.42881000041962E-02,2.42545747756958,7.91254639625549E-02
99.822,-7.42701962590218E-02,2.42364573478699,7.90872201323509E-02
99.823,-.074252687394619,2.4218533039093,7.90492668747902E-02
99.824,-7.42345377802849E-02,2.42002272605896,7.90104493498802E-02
99.825,-7.42167457938194E-02,2.418212890625,7.89719298481941E-02
99.826,-7.41982311010361E-02,2.41636562347412,7.89325460791588E-02
99.827,-7.41801112890244E-02,2.41453814506531,7.88934379816055E-02
99.828,-7.41611644625664E-02,2.41267251968384,7.88534879684448E-02
99.82899,-7.41425082087517E-02,2.41081237792969,7.88134709000587E-02
99.82999,-7.41236507892609E-02,2.40894412994385,7.87732303142548E-02
99.83099,-7.41045698523521E-02,2.40706753730774,7.87326991558075E-02
99.832,-7.40850195288658E-02,2.40516638755798,7.86915868520737E-02
99.833,-7.40654990077019E-02,2.40327072143555,7.86504149436951E-02
99.834,-7.40456581115723E-02,2.4013671875,7.86090493202209E-02
99.835,-.074025958776474,2.39945578575134,7.85673856735229E-02
99.836,-7.40059539675713E-02,2.39753437042236,7.85254314541817E-02
99.837,-7.39855244755745E-02,2.395587682724,7.84828215837479E-02
99.838,-7.39654824137688E-02,2.39366459846497,7.84405991435051E-02
99.839,-.073944516479969,2.3917019367218,7.83974453806877E-02
99.84,-7.39239901304245E-02,2.38974714279175,7.83543810248375E-02
99.841,-7.39027336239815E-02,2.38776588439941,.078310638666153
99.842,-7.38818049430847E-02,2.38580822944641,7.82673507928848E-02
99.84299,-7.38600641489029E-02,2.38381028175354,7.82230421900749E-02
99.84399,-7.38387107849121E-02,2.3818199634552,7.81788006424904E-02
99.84499,-7.38166198134422E-02,2.37980389595032,7.81339332461357E-02
99.846,-.07379449903965,2.37777972221375,.078088790178299
99.847,-7.37728253006935E-02,2.3757791519165,7.80440717935562E-02
99.848,-7.37503841519356E-02,2.37373852729797,7.79983475804329E-02
99.849,-7.37279653549194E-02,2.37170314788818,.077952690422535
99.85,-7.37051442265511E-02,2.36964440345764,.077906422317028
99.851,-.073682501912117,2.36759257316589,7.78602063655853E-02
99.852,-7.36592188477516E-02,2.3655161857605,7.78133273124695E-02
99.853,-7.36359283328056E-02,2.36344742774963,7.77665674686432E-02
99.854,-7.36125186085701E-02,2.36135339736938,.077719122171402
99.855,-7.35891163349152E-02,2.35926747322083,7.76718407869339E-02
99.856,-7.35652297735214E-02,2.35717248916626,7.76242166757584E-02
99.85699,-7.35415294766426E-02,2.35506939888,7.75762945413589E-02
99.85799,-7.35170990228653E-02,2.35294103622437,.07752775400877
99.85899,-7.34928995370865E-02,2.35082030296326,7.74792954325676E-02
99.86,-7.34682157635689E-02,2.34867525100708,7.74301961064339E-02
99.861,-.073443241417408,2.34652066230774,7.73807987570763E-02
99.862,-7.34185203909874E-02,2.34437441825867,.077331505715847
99.863,-.073393389582634,2.34220314025879,7.72815570235252E-02
99.864,-7.33681619167328E-02,2.3400399684906,7.72317200899124E-02
99.865,-7.33421817421913E-02,2.33783364295959,.077180802822113
99.866,-7.33166411519051E-02,2.33565306663513,7.71303921937943E-02
99.867,-7.32905939221382E-02,2.33344721794128,7.70792961120605E-02
99.868,-7.32647031545639E-02,2.33124947547913,7.70283415913582E-02
99.869,-.0732381939888,2.32902550697327,7.69766792654991E-02
99.87,-7.32119083404541E-02,2.32681226730347,7.69251883029938E-02
99.87099,-.073185034096241,2.32457137107849,7.68729895353317E-02
99.87199,-7.31583163142204E-02,2.32233858108521,7.68208876252174E-02
99.87299,-7.31309801340103E-02,2.32008075714111,.07676812261343
99.874,-7.31031075119972E-02,2.31779718399048,7.67147094011307E-02
99.875,-7.30757936835289E-02,2.31553912162781,7.66617655754089E-02
99.876,-.073048010468483,2.31325554847717,7.66081660985947E-02
99.877,-7.30203464627266E-02,2.31098246574402,7.65547230839729E-02
99.878,-7.29915276169777E-02,2.30866408348083,7.65001401305199E-02
99.879,-7.29635879397392E-02,2.30637264251709,7.64461308717728E-02
99.88,-7.29349106550217E-02,2.30405521392822,7.63914212584496E-02
99.881,-7.29066208004951E-02,2.30174827575684,7.63368904590607E-02
99.882,-7.28769972920418E-02,2.29939460754395,7.62811824679375E-02
99.883,-7.28480964899063E-02,2.29707026481628,7.62261003255844E-02
99.884,-7.28189423680305E-02,2.29473757743835,7.61707276105881E-02
99.88499,-7.27886110544205E-02,2.29235911369324,.076114185154438
99.88599,-7.27591514587402E-02,2.29000949859619,7.60582759976387E-02
99.88699,-7.27290883660316E-02,2.28763198852539,7.60016143321991E-02
99.888,-7.26983249187469E-02,2.28522753715515,.075944259762764
99.889,-7.26680383086205E-02,2.28283381462097,7.58870542049408E-02
99.89,-7.26379379630089E-02,2.28045153617859,7.58300647139549E-02
99.891,-7.26065039634705E-02,2.27802157402039,7.57718682289124E-02
99.892,-7.25758001208305E-02,2.27562165260315,7.57143124938011E-02
99.893,-.072544127702713,2.27317500114441,.075655572116375
99.894,-7.25128278136253E-02,2.27075862884521,7.55974650382996E-02
99.895,-.072480633854866,2.26829504966736,7.55381733179092E-02
99.896,-7.24490880966187E-02,2.26586151123047,7.54795074462891E-02
99.897,-7.24169015884399E-02,2.26340126991272,7.54201486706734E-02
99.89799,-7.23845064640045E-02,2.26093149185181,.075360506772995
99.89899,-.072351798415184,2.25845384597778,7.53005817532539E-02
99.89999,-7.23187625408173E-02,2.25596785545349,7.52403661608696E-02
99.90099,-7.22857341170311E-02,2.25347185134888,7.51798823475838E-02
99.902,-7.22521170973778E-02,2.2509503364563,.07511867582798
99.903,-7.22187831997871E-02,2.2484393119812,7.50576555728912E-02
99.904,-.072185218334198,2.24591898918152,7.49963521957397E-02
99.905,-.072151280939579,2.24339199066162,7.49348029494286E-02
99.906,-7.21166953444481E-02,2.24083614349365,7.48724937438965E-02
99.907,-7.20828175544739E-02,2.23831105232239,7.48108476400375E-02
99.908,-7.20478519797325E-02,2.23573899269104,7.47480168938637E-02
99.909,-7.20136240124702E-02,2.23319816589355,7.46858641505241E-02
99.91,-7.19787031412125E-02,2.23062920570374,7.46229514479637E-02
99.911,-.071942999958992,2.228031873703,7.45593085885048E-02
99.91199,-7.19074085354805E-02,2.22544550895691,7.44958221912384E-02
99.91299,-7.18716979026794E-02,2.22285175323486,7.44321346282959E-02
99.91399,-7.18358233571053E-02,2.22024917602539,7.43681490421295E-02
99.91499,-7.17993527650833E-02,2.21761846542358,7.43034109473228E-02
99.916,-7.17630609869957E-02,2.21500015258789,7.42389112710953E-02
99.917,-7.17260017991066E-02,2.21235275268555,7.41735994815826E-02
99.918,-7.16894716024399E-02,2.20971775054932,7.41085484623909E-02
99.919,-7.16520771384239E-02,2.20705413818359,7.40427076816559E-02
99.92,-7.16149061918259E-02,2.20440173149109,7.39770978689194E-02
99.921,-7.15776681900024E-02,2.20174288749695,.073911264538765
99.922,-7.15402960777283E-02,2.1990749835968,7.38451182842255E-02
99.923,-7.15023726224899E-02,2.1963996887207,7.37787410616875E-02
99.924,-.071463868021965,2.19369387626648,7.37115517258644E-02
99.925,-7.14256167411804E-02,2.191002368927,.073644645512104
99.92599,-7.13866800069809E-02,2.18828153610229,7.35769495368004E-02
99.92699,-7.13480859994888E-02,2.18557238578796,7.35094845294952E-02
99.92799,-7.13087171316147E-02,2.18283486366272,7.34412521123886E-02
99.92899,-7.12695121765137E-02,2.18010926246643,7.33732506632805E-02
99.93,-7.12298527359962E-02,2.17735576629639,7.33044818043709E-02
99.931,-.071190133690834,2.17461514472961,7.32359886169434E-02
99.932,-7.11496844887733E-02,2.17184400558472,7.31666460633278E-02
99.933,-7.11097866296768E-02,2.1690878868103,7.30976462364197E-02
99.934,-7.10694566369057E-02,2.16632223129272,7.30283260345459E-02
99.935,-7.10285753011703E-02,2.16352772712708,.07295823097229
99.936,-7.09880143404007E-02,2.16074585914612,7.28884041309357E-02
99.937,-7.09461495280266E-02,2.15791249275208,7.28172063827515E-02
99.938,-7.09048435091972E-02,2.15511703491211,7.27468952536583E-02
99.939,-7.08629563450813E-02,2.15228962898254,7.26757124066353E-02
99.93999,-7.08214864134789E-02,2.14947724342346,7.26048871874809E-02
99.94099,-7.07790702581406E-02,2.14663314819336,7.25331827998161E-02
99.94199,-7.07368850708008E-02,2.1438045501709,7.24618211388588E-02
99.94299,-7.06939995288849E-02,2.140944480896,.072389580309391
99.944,-7.06507861614227E-02,2.13807725906372,7.23171234130859E-02
99.945,-7.06075355410576E-02,2.1352014541626,7.22443908452988E-02
99.946,-7.05638825893402E-02,2.1323184967041,7.21713975071907E-02
99.947,-7.05205649137497E-02,2.12945032119751,7.20987021923065E-02
99.948,-7.04766213893891E-02,2.12655115127563,7.20251947641373E-02
99.949,-7.04329907894135E-02,2.12366676330566,7.19519853591919E-02
99.95,-.07038813829422,2.12072801589966,7.18773752450943E-02
99.951,-7.03439563512802E-02,2.11782836914063,7.18036815524101E-02
99.952,-.070298857986927,2.11489677429199,7.17290937900543E-02
99.953,-7.02542290091515E-02,2.11198091506958,7.16549083590508E-02
99.95399,-.070208340883255,2.10901045799255,7.15792328119278E-02
99.95499,-7.01630637049675E-02,2.10607862472534,7.15044960379601E-02
99.95599,-7.01171606779099E-02,2.10311555862427,7.14288651943207E-02
99.957,-7.00703784823418E-02,2.10012173652649,7.13524371385574E-02
99.958,-7.00239539146423E-02,2.09714317321777,7.12763667106628E-02
99.959,-6.99779093265533E-02,2.09418058395386,7.12006092071533E-02
99.96,-6.99308142066002E-02,2.09118509292603,7.11239650845528E-02
99.961,-.069883719086647,2.08818340301514,7.10471123456955E-02
99.962,-6.98362812399864E-02,2.08517289161682,7.09699839353561E-02
99.963,-6.97887241840363E-02,2.08215522766113,7.08926022052765E-02
99.964,-6.97408393025398E-02,2.07913017272949,7.08149522542953E-02
99.965,-6.96926265954971E-02,2.07609534263611,7.07370266318321E-02
99.966,-6.96444064378738E-02,2.07305431365967,7.06588700413704E-02
99.967,-6.95959851145744E-02,2.07000494003296,7.05804377794266E-02
99.96799,-6.95472285151482E-02,2.06694865226746,7.05017745494843E-02
99.96899,-6.94983378052712E-02,2.06388425827026,7.04228952527046E-02
99.96999,-6.94490149617195E-02,2.0608115196228,7.03437030315399E-02
99.971,-6.93989247083664E-02,2.0577073097229,.070263683795929
99.972,-6.93491026759148E-02,2.05461859703064,7.01839998364449E-02
99.973,-.069299079477787,2.05152368545532,7.01040700078011E-02
99.974,-6.92487731575966E-02,2.048419713974,7.00238943099976E-02
99.975,-.069198340177536,2.0453097820282,6.99435025453568E-02
99.976,-6.91474452614784E-02,2.04219102859497,6.98628053069115E-02
99.977,-6.90962821245193E-02,2.03906559944153,6.97818696498871E-02
99.978,-6.90443441271782E-02,2.03590512275696,6.97000175714493E-02
99.979,-6.89927712082863E-02,2.03276491165161,6.96186423301697E-02
99.98,-6.89410120248795E-02,2.02961468696594,6.95369318127632E-02
99.981,-6.88890889286995E-02,2.02645826339722,6.94550275802612E-02
99.98199,-6.88361823558807E-02,2.02326798439026,6.93721994757652E-02
99.98299,-6.87838196754456E-02,2.02009677886963,6.92897588014603E-02
99.98399,-6.87309578061104E-02,2.01691603660583,6.92070722579956E-02
99.985,-6.86772242188454E-02,2.01370453834534,6.91235139966011E-02
99.986,-6.86240270733833E-02,2.01050877571106,.069040335714817
99.987,-6.85699060559273E-02,2.00728178024292,6.89562857151031E-02
99.988,-6.85160532593727E-02,2.00407075881958,6.88725635409355E-02
99.989,-6.84614703059196E-02,2.00082921981812,6.87880218029022E-02
99.99,-.068407230079174,1.99760234355927,6.87038451433182E-02
99.991,-6.83519318699837E-02,1.99434506893158,6.86187818646431E-02
99.992,-.06829784065485,1.99112975597382,6.85347840189934E-02
99.993,-6.82421177625656E-02,1.98785698413849,6.84492364525795E-02
99.994,-6.81868493556976E-02,1.98460221290588,6.83641210198402E-02
99.995,-6.81306198239326E-02,1.98131322860718,6.82780370116234E-02
