Structure Acceleration, RAO-Based Response
Line A: Structure Acceleration, RAO-Based Response - Global Z (Trimaran - Center of Gravity relative to Origin of Fixed Reference Axes (FRA)) [mm/s²]

*Time (s),Line A (mm/s²)
100,-6.06992328539491
100.001,-6.06928672641516
100.002,-6.06864131987095
100.003,-6.06799498200417
100.004,-6.06733839958906
100.005,-6.06668135151267
100.006,-6.06601405888796
100.007,-6.06534024700522
100.008,-6.06466131284833
100.009,-6.06398284435272
100.01,-6.06329925358295
100.011,-6.062604021281
100.012,-6.06191018596292
100.013,-6.06120377779007
100.014,-6.06049876660109
100.015,-6.05978211387992
100.016,-6.05906592682004
100.017,-6.05833856388927
100.018,-6.05761259794235
100.019,-6.05687452480197
100.02,-6.05613691732287
100.021,-6.05538208037615
100.022,-6.05463329702616
100.023,-6.05388078838587
100.024,-6.05311524122953
100.025,-6.05235109105706
100.026,-6.05157483369112
100.027,-6.05079997330904
100.028,-6.05001300573349
100.029,-6.0492274351418
100.03,-6.04843208566308
100.031,-6.04763487353921
100.032,-6.04682695120573
100.033,-6.04601996019483
100.034,-6.04520225897431
100.035,-6.0443771071732
100.036,-6.04355381801724
100.037,-6.04271842166781
100.038,-6.04188488796353
100.039,-6.04103924706578
100.04,-6.04019453749061
100.041,-6.03933772072196
100.042,-6.03848276659846
100.043,-6.03761477395892
100.044,-6.03674910962582
100.045,-6.03587040677667
100.046,-6.03499403223395
100.047,-6.03410508483648
100.048,-6.03321939706802
100.049,-6.03232020512223
100.05,-6.03141495957971
100.051,-6.03051111102104
100.052,-6.02959515526891
100.053,-6.0286819934845
100.054,-6.02775579318404
100.055,-6.02683098986745
100.056,-6.0258936136961
100.057,-6.02495949715376
100.058,-6.02400349453092
100.059,-6.02305820211768
100.06,-6.02209893986583
100.061,-6.02114433422685
100.062,-6.02018181234598
100.063,-6.01919833570719
100.064,-6.01822696626186
100.065,-6.01724162697792
100.066,-6.01625861600041
100.067,-6.015261169523
100.068,-6.01426744833589
100.069,-6.0132616199553
100.07,-6.01224880665541
100.071,-6.0112327337265
100.072,-6.01021712645888
100.073,-6.00918848067522
100.074,-6.00816356018186
100.075,-6.00713258609176
100.076,-6.0060890391469
100.077,-6.00503198802471
100.078,-6.00397633388638
100.079,-6.00292440503836
100.08,-6.00185804069042
100.081,-6.00079586729407
100.082,-5.99972112104297
100.083,-5.99863985553384
100.084,-5.99755346775055
100.085,-5.99646847695112
100.086,-5.99538069218397
100.087,-5.99426869302988
100.088,-5.99317019805312
100.089,-5.99205587059259
100.09,-5.99094619974494
100.091,-5.98980393260717
100.092,-5.98868494853377
100.093,-5.98755059763789
100.094,-5.98640972748399
100.095,-5.9852646663785
100.096,-5.98412426188588
100.097,-5.98295964300632
100.098,-5.9818085283041
100.099,-5.98065182566643
100.1,-5.9794713743031
100.101,-5.9783048927784
100.102,-5.97711326554418
100.103,-5.97593607380986
100.104,-5.97473466768861
100.105,-5.97353791818023
100.106,-5.97232533618808
100.107,-5.97112812101841
100.108,-5.96990576013923
100.109,-5.9686885215342
100.11,-5.96746429800987
100.111,-5.9662377461791
100.112,-5.9650163166225
100.113,-5.96376834437251
100.114,-5.96252549439669
100.115,-5.96126588061452
100.116,-5.96002349629998
100.117,-5.95875596627593
100.118,-5.9574949555099
100.119,-5.9562074020505
100.12,-5.95494406297803
100.121,-5.95365650951862
100.122,-5.95237547531724
100.123,-5.95107767730951
100.124,-5.94978639855981
100.125,-5.94849092885852
100.126,-5.94718009233475
100.127,-5.94587530940771
100.128,-5.94455469399691
100.129,-5.94323873519897
100.13,-5.94190927222371
100.131,-5.94058679416776
100.132,-5.93923684209585
100.133,-5.93790598213673
100.134,-5.93655975535512
100.135,-5.93522004783154
100.136,-5.93386590480804
100.137,-5.93250803649426
100.138,-5.93115715309978
100.139,-5.9297913685441
100.14,-5.92842092737556
100.141,-5.92704815790057
100.142,-5.92568423599005
100.143,-5.92429516837001
100.144,-5.92292565852404
100.145,-5.92152960598469
100.146,-5.92014379799366
100.147,-5.91875612735748
100.148,-5.91736705973744
100.149,-5.91597845777869
100.15,-5.9145875275135
100.151,-5.9131970629096
100.152,-5.91180752962828
100.153,-5.91041706502438
100.154,-5.9090219438076
100.155,-5.90765010565519
100.156,-5.90625917539001
100.157,-5.90488500893116
100.158,-5.9035187587142
100.159,-5.90216275304556
100.16,-5.9007927775383
100.161,-5.89946378022432
100.162,-5.89815154671669
100.163,-5.89685048907995
100.164,-5.89559087529778
100.165,-5.89435081928968
100.166,-5.89317362755537
100.167,-5.89204020798206
100.168,-5.89099619537592
100.169,-5.89003739878535
100.17,-5.88922435417771
100.171,-5.88858313858509
100.172,-5.88821386918426
100.173,-5.88821154087782
100.174,-5.88878896087408
100.175,-5.89029910042882
100.176,-5.89341809973121
100.177,-5.89956436306238
100.178,-5.91193838045001
100.179,-5.93856815248728
100.18,-6.01477781310678
100.181,-6.13241177052259
100.182,-6.22868956997991
100.183,-6.27546384930611
100.184,-6.2929717823863
100.185,-6.3016046769917
100.186,-6.30605686455965
100.187,-6.30833860486746
100.188,-6.30935654044151
100.189,-6.30960613489151
100.19,-6.30935886874795
100.191,-6.3087553717196
100.192,-6.30791764706373
100.193,-6.30687782540917
100.194,-6.30570948123932
100.195,-6.30441401153803
100.196,-6.30304217338562
100.197,-6.30157859995961
100.198,-6.30006799474359
100.199,-6.29848940297961
100.2,-6.29687448963523
100.201,-6.29521906375885
100.202,-6.29349751397967
100.203,-6.29178248345852
100.204,-6.29000877961516
100.205,-6.2882206402719
100.206,-6.28640409559011
100.207,-6.28456100821495
100.208,-6.28268299624324
100.209,-6.2808059155941
100.21,-6.2788799405098
100.211,-6.27694651484489
100.212,-6.27499213442206
100.213,-6.27301959320903
100.214,-6.27104099839926
100.215,-6.26901630312204
100.216,-6.26698881387711
100.217,-6.26493105664849
100.218,-6.26288307830691
100.219,-6.26079319044948
100.22,-6.25871866941452
100.221,-6.25661527737975
100.222,-6.25449931249022
100.223,-6.25237170606852
100.224,-6.25025015324354
100.225,-6.24810345470905
100.226,-6.24595023691654
100.227,-6.24380726367235
100.228,-6.24162936583161
100.229,-6.2394835986197
100.23,-6.23730570077896
100.231,-6.23514642938972
100.232,-6.23299553990364
100.233,-6.23086513951421
100.234,-6.22871797531843
100.235,-6.22661551460624
100.236,-6.2245181761682
100.237,-6.22245296835899
100.238,-6.22039660811424
100.239,-6.21837005019188
100.24,-6.21638586744666
100.241,-6.21440587565303
100.242,-6.21249154210091
100.243,-6.21059024706483
100.244,-6.2087494879961
100.245,-6.20695669203997
100.246,-6.20521605014801
100.247,-6.20353315025568
100.248,-6.20192615315318
100.249,-6.20034756138921
100.25,-6.19887188076973
100.251,-6.19744462892413
100.252,-6.19608582928777
100.253,-6.19481271132827
100.254,-6.19357312098145
100.255,-6.19242945685983
100.256,-6.19131186977029
100.257,-6.19026087224483
100.258,-6.18924433365464
100.259,-6.18824642151594
100.26,-6.18724338710308
100.261,-6.18454022333026
100.262,-6.18106825277209
100.263,-6.17727776989341
100.264,-6.17306958884001
100.265,-6.16839900612831
100.266,-6.16321200504899
100.267,-6.15744339302182
100.268,-6.151067558676
100.269,-6.14401465281844
100.27,-6.13629119470716
100.271,-6.12790323793888
100.272,-6.11894344910979
100.273,-6.1094406992197
100.274,-6.09952956438065
100.275,-6.08931621536613
100.276,-6.07594614848495
100.277,-6.06249505653977
100.278,-6.04923721402884
100.279,-6.03637704625726
100.28,-6.02395413443446
100.281,-6.01212633773685
100.282,-6.00091274827719
100.283,-5.99039578810334
100.284,-5.98058570176363
100.285,-5.97152533009648
100.286,-5.96325984224677
100.287,-5.9558073990047
100.288,-5.94915542751551
100.289,-5.94333978369832
100.29,-5.9384279884398
100.291,-5.93437533825636
100.292,-5.93129079788923
100.293,-5.9291566722095
100.294,-5.92804979532957
100.295,-5.9279752895236
100.296,-5.92902535572648
100.297,-5.93115063384175
100.298,-5.93443214893341
100.299,-5.93877583742142
100.3,-5.94421150162816
100.301,-5.95057802274823
100.302,-5.9576747007668
100.303,-5.96537161618471
100.304,-5.97331114113331
100.305,-5.98124600946903
100.306,-5.98885212093592
100.307,-5.99585380405188
100.308,-6.00195303559303
100.309,-6.00699381902814
100.31,-6.01073214784265
100.311,-6.01227907463908
100.312,-6.01224415004253
100.313,-6.01109815761447
100.314,-6.00878521800041
100.315,-6.00521033629775
100.316,-6.00028084591031
100.317,-5.99268963560462
100.318,-5.98252192139626
100.319,-5.97014836966991
100.32,-5.95566816627979
100.321,-5.93928573653102
100.322,-5.92148955911398
100.323,-5.9029352851212
100.324,-5.88443363085389
100.325,-5.86682511493564
100.326,-5.85087994113564
100.327,-5.83717320114374
100.328,-5.82610070705414
100.329,-5.81799494102597
100.33,-5.81296300515532
100.331,-5.81116555258632
100.332,-5.81257557496428
100.333,-5.81717118620872
100.334,-5.82469021901488
100.335,-5.83473453298211
100.336,-5.84650551900268
100.337,-5.85903460159898
100.338,-5.87108079344034
100.339,-5.88158797472715
100.34,-5.88959641754627
100.341,-5.89434150606394
100.342,-5.89548982679844
100.343,-5.8926441706717
100.344,-5.8856587857008
100.345,-5.87435020133853
100.346,-5.85896475240588
100.347,-5.84005191922188
100.348,-5.81888435408473
100.349,-5.79722318798304
100.35,-5.7770824059844
100.351,-5.76016819104552
100.352,-5.74752781540155
100.353,-5.74020761996508
100.354,-5.73854800313711
100.355,-5.74251869693398
100.356,-5.75161585584283
100.357,-5.76454633846879
100.358,-5.77967893332243
100.359,-5.79469185322523
100.36,-5.8071780949831
100.361,-5.81532949581742
100.362,-5.81796513870358
100.363,-5.81451272591949
100.364,-5.80486841499805
100.365,-5.78938331454992
100.366,-5.76924812048674
100.367,-5.74661139398813
100.368,-5.72431413456798
100.369,-5.70463854819536
100.37,-5.6901453062892
100.371,-5.68183558061719
100.372,-5.6801033206284
100.373,-5.68464072421193
100.374,-5.69477444514632
100.375,-5.70898596197367
100.376,-5.7248193770647
100.377,-5.74013357982039
100.378,-5.75260352343321
100.379,-5.76068321242929
100.38,-5.76349813491106
100.381,-5.76082337647676
100.382,-5.75274229049683
100.383,-5.73980202898383
100.384,-5.72278164327145
100.385,-5.70308277383447
100.386,-5.68242929875851
100.387,-5.66223217174411
100.388,-5.64445555210114
100.389,-5.63011458143592
100.39,-5.61959622427821
100.391,-5.61291584745049
100.392,-5.60987275093794
100.393,-5.61009906232357
100.394,-5.61326555907726
100.395,-5.6188483722508
100.396,-5.62641443684697
100.397,-5.63538493588567
100.398,-5.64517546445131
100.399,-5.6550158187747
100.4,-5.66431460902095
100.401,-5.67275937646627
100.402,-5.68004604429007
100.403,-5.68591943010688
100.404,-5.69023052230477
100.405,-5.69297792389989
100.406,-5.69412810727954
100.407,-5.69373369216919
100.408,-5.69181796163321
100.409,-5.68846333771944
100.41,-5.68363210186362
100.411,-5.67741133272648
100.412,-5.66977262496948
100.413,-5.66076952964067
100.414,-5.65046165138483
100.415,-5.63895283266902
100.416,-5.62645634636283
100.417,-5.61332842335105
100.418,-5.60001749545336
100.419,-5.58703625574708
100.42,-5.57510415092111
100.421,-5.56514086201787
100.422,-5.55804930627346
100.423,-5.55450702086091
100.424,-5.55511983111501
100.425,-5.56002231314778
100.426,-5.56843494996428
100.427,-5.57835958898067
100.428,-5.58719830587506
100.429,-5.59181673452258
100.43,-5.58947445824742
100.431,-5.57869160547853
100.432,-5.56016759946942
100.433,-5.53780468180776
100.434,-5.51770487800241
100.435,-5.5069737136364
100.436,-5.50891971215606
100.437,-5.52134588360786
100.438,-5.53480442613363
100.439,-5.53838722407818
100.44,-5.52559643983841
100.441,-5.50025096163154
100.442,-5.47672901302576
100.443,-5.47059811651707
100.444,-5.48354769125581
100.445,-5.49852382391691
100.446,-5.49442507326603
100.447,-5.46833733096719
100.448,-5.44269941747189
100.449,-5.44264772906899
100.45,-5.46147488057613
100.451,-5.46421622857451
100.452,-5.43704722076654
100.453,-5.41179068386555
100.454,-5.42045943439007
100.455,-5.43725024908781
100.456,-5.41884172707796
100.457,-5.3872219286859
100.458,-5.39321126416326
100.459,-5.40981767699122
100.46,-5.38417045027018
100.461,-5.35927200689912
100.462,-5.37837110459805
100.463,-5.37467747926712
100.464,-5.33836474642158
100.465,-5.34798391163349
100.466,-5.35427592694759
100.467,-5.31631987541914
100.468,-5.32507849857211
100.469,-5.3273867815733
100.47,-5.29036670923233
100.471,-5.30864903703332
100.472,-5.29095437377691
100.473,-5.2701523527503
100.474,-5.28780836611986
100.475,-5.24852564558387
100.476,-5.26435906067491
100.477,-5.24028157815337
100.478,-5.23420097306371
100.479,-5.23099442943931
100.48,-5.20753813907504
100.481,-5.21577382460237
100.482,-5.18514076247811
100.483,-5.19596878439188
100.484,-5.16519509255886
100.485,-5.17258420586586
100.486,-5.14760054647923
100.487,-5.14487735927105
100.488,-5.13325445353985
100.489,-5.11292275041342
100.49,-5.11944247409701
100.491,-5.0836973823607
100.492,-5.09470282122493
100.493,-5.06941415369511
100.494,-5.05356304347515
100.495,-5.05907321348786
100.496,-5.02611650153995
100.497,-5.01869805157185
100.498,-5.01911202445626
100.499,-4.98821632936597
100.5,-4.97420178726315
100.501,-4.9764821305871
100.502,-4.95590548962355
100.503,-4.92832856252789
100.504,-4.9202973023057
100.505,-4.91739669814706
100.506,-4.8993956297636
100.507,-4.87261405214667
100.508,-4.85283881425858
100.509,-4.84305899590254
100.51,-4.83519397675991
100.511,-4.82200272381306
100.512,-4.80258837342262
100.513,-4.7801285982132
100.514,-4.75775869563222
100.515,-4.73707402125001
100.516,-4.7179376706481
100.517,-4.69968561083078
100.518,-4.68160910531878
100.519,-4.66316426172853
100.52,-4.644223023206
100.521,-4.62466897442937
100.522,-4.60474938154221
100.523,-4.58470452576876
100.524,-4.56498330458999
100.525,-4.54584835097194
100.526,-4.52728848904371
100.527,-4.5081302523613
100.528,-4.486626945436
100.529,-4.46135737001896
100.53,-4.43396763876081
100.531,-4.40921168774366
100.532,-4.38971212133765
100.533,-4.37005190178752
100.534,-4.34246705844998
100.535,-4.31224843487144
100.536,-4.29052300751209
100.537,-4.27031936123967
100.538,-4.23935987055302
100.539,-4.2105270549655
100.54,-4.19122539460659
100.541,-4.16301656514406
100.542,-4.13077278062701
100.543,-4.11023199558258
100.544,-4.08317148685455
100.545,-4.04971139505506
100.546,-4.02824860066175
100.547,-4.00147819891572
100.548,-3.96759994328022
100.549,-3.94506752490997
100.55,-3.9193076081574
100.551,-3.88521538116038
100.552,-3.86055675335228
100.553,-3.83733888156712
100.554,-3.80473071709275
100.555,-3.77532886341214
100.556,-3.75326862558722
100.557,-3.72760929167271
100.558,-3.69618507102132
100.559,-3.66702536121011
100.56,-3.64299397915602
100.561,-3.62035725265741
100.562,-3.59573191963136
100.563,-3.56912822462618
100.564,-3.54218180291355
100.565,-3.51605983451009
100.566,-3.4910929389298
100.567,-3.46725597046316
100.568,-3.44466604292393
100.569,-3.42328008264303
100.57,-3.40297794900835
100.571,-3.38226230815053
100.572,-3.35894618183374
100.573,-3.33421444520354
100.574,-3.31623782403767
100.575,-3.30383353866637
100.576,-3.27994883991778
100.577,-3.26345604844391
100.578,-3.25154955498874
100.579,-3.23022692464292
100.58,-3.22173908352852
100.581,-3.20666749030352
100.582,-3.18983802571893
100.583,-3.18713998422027
100.584,-3.17871430888772
100.585,-3.16541385836899
100.586,-3.15519887953997
100.587,-3.15053085796535
100.588,-3.15084843896329
100.589,-3.15330200828612
100.59,-3.14851594157517
100.591,-3.13339149579406
100.592,-3.13627743162215
100.593,-3.14510660246015
100.594,-3.13754798844457
100.595,-3.14781465567648
100.596,-3.15581471659243
100.597,-3.15518141724169
100.598,-3.16396984271705
100.599,-3.17614758387208
100.6,-3.18840425461531
