Structure Acceleration, RAO-Based Response
Line A: Structure Acceleration, RAO-Based Response - Global Z (Trimaran - Center of Gravity relative to Origin of Fixed Reference Axes (FRA)) [mm/s²]

*Time (s),Line A (mm/s²)
100,-27.5111980736256
100.001,-27.5279115885496
100.002,-27.5444965809584
100.003,-27.5609567761421
100.004,-27.5772921741009
100.005,-27.5935009121895
100.006,-27.6095829904079
100.007,-27.6256520301104
100.008,-27.6414845138788
100.009,-27.6571847498417
100.01,-27.6727620512247
100.011,-27.6882164180279
100.012,-27.7034305036068
100.013,-27.7186259627342
100.014,-27.7336984872818
100.015,-27.7486443519592
100.016,-27.7634654194117
100.017,-27.7781616896391
100.018,-27.7927238494158
100.019,-27.8071630746126
100.02,-27.821471914649
100.021,-27.8357584029436
100.022,-27.84981764853
100.023,-27.863746508956
100.024,-27.8775468468666
100.025,-27.8912167996168
100.026,-27.9047694057226
100.027,-27.9180929064751
100.028,-27.9313884675503
100.029,-27.944553643465
100.03,-27.9575884342194
100.031,-27.9704965651035
100.032,-27.9832817614079
100.033,-27.9959347099066
100.034,-28.0084628611803
100.035,-28.0209500342607
100.036,-28.0332211405039
100.037,-28.0454494059086
100.038,-28.0574578791857
100.039,-28.0693434178829
100.04,-28.0810985714197
100.041,-28.0927270650864
100.042,-28.1041413545609
100.043,-28.1155109405518
100.044,-28.1267557293177
100.045,-28.1378701329231
100.046,-28.1489342451096
100.047,-28.1597897410393
100.048,-28.170520439744
100.049,-28.1811840832233
100.05,-28.1916558742523
100.051,-28.2019954174757
100.052,-28.2122083008289
100.053,-28.2223597168922
100.054,-28.2323062419891
100.055,-28.2421316951513
100.056,-28.2517522573471
100.057,-28.2613839954138
100.058,-28.2708145678043
100.059,-28.2801184803247
100.06,-28.289295732975
100.061,-28.2984003424644
100.062,-28.3073168247938
100.063,-28.3161606639624
100.064,-28.3248126506805
100.065,-28.333393856883
100.066,-28.3417887985706
100.067,-28.3500477671623
100.068,-28.3582396805286
100.069,-28.3662360161543
100.07,-28.3741112798452
100.071,-28.3818431198597
100.072,-28.3894557505846
100.073,-28.3969845622778
100.074,-28.4043271094561
100.075,-28.4115970134735
100.076,-28.4186750650406
100.077,-28.4257251769304
100.078,-28.4325499087572
100.079,-28.439287096262
100.08,-28.4458361566067
100.081,-28.45230512321
100.082,-28.4585952758789
100.083,-28.4647941589355
100.084,-28.4708645194769
100.085,-28.4767132252455
100.086,-28.482511639595
100.087,-28.4881740808487
100.088,-28.4936614334583
100.089,-28.4990575164557
100.09,-28.5043157637119
100.091,-28.5094808787107
100.092,-28.5144634544849
100.093,-28.5193137824535
100.094,-28.5240225493908
100.095,-28.5285972058773
100.096,-28.5330396145582
100.097,-28.5373330116272
100.098,-28.5414922982454
100.099,-28.5455137491226
100.1,-28.5493675619364
100.101,-28.5531356930733
100.102,-28.5567380487919
100.103,-28.560196980834
100.104,-28.5635124891996
100.105,-28.5667311400175
100.106,-28.5697653889656
100.107,-28.5726711153984
100.108,-28.5754129290581
100.109,-28.5780280828476
100.11,-28.5804960876703
100.111,-28.5827983170748
100.112,-28.5849776118994
100.113,-28.5869985818863
100.114,-28.5888519138098
100.115,-28.5905692726374
100.116,-28.5921283066273
100.117,-28.5935420542955
100.118,-28.5947974771261
100.119,-28.5958983004093
100.12,-28.5968277603388
100.121,-28.5976082086563
100.122,-28.598215430975
100.123,-28.5986755043268
100.124,-28.5989679396152
100.125,-28.5990834236145
100.126,-28.5990349948406
100.127,-28.5988003015518
100.128,-28.5984128713608
100.129,-28.5978429019451
100.13,-28.5970959812403
100.131,-28.596168383956
100.132,-28.5950526595116
100.133,-28.5937394946814
100.134,-28.5922437906265
100.135,-28.5905413329601
100.136,-28.5886600613594
100.137,-28.5865627229214
100.138,-28.5842604935169
100.139,-28.5817440599203
100.14,-28.5790022462606
100.141,-28.5760369151831
100.142,-28.5728517919779
100.143,-28.5694226622581
100.144,-28.5657551139593
100.145,-28.5618230700493
100.146,-28.5576060414314
100.147,-28.5531524568796
100.148,-28.5484008491039
100.149,-28.5433474928141
100.15,-28.5379961133003
100.151,-28.5323206335306
100.152,-28.5263024270535
100.153,-28.5199303179979
100.154,-28.5131763666868
100.155,-28.5060033202171
100.156,-28.4984279423952
100.157,-28.4904018044472
100.158,-28.4818839281797
100.159,-28.4728594124317
100.16,-28.4631960093975
100.161,-28.4529775381088
100.162,-28.4420512616634
100.163,-28.4304041415453
100.164,-28.4179337322712
100.165,-28.4045543521643
100.166,-28.39021012187
100.167,-28.3746458590031
100.168,-28.3578168600798
100.169,-28.3395349979401
100.17,-28.3195432275534
100.171,-28.2975733280182
100.172,-28.2732862979174
100.173,-28.2462257891893
100.174,-28.2157696783543
100.175,-28.1813703477383
100.176,-28.1419511884451
100.177,-28.0963536351919
100.178,-28.0428417026997
100.179,-27.9792528599501
100.18,-27.9026068747044
100.181,-27.8090331703424
100.182,-27.6939012110233
100.183,-27.5533031672239
100.184,-27.0627588033676
100.185,-26.0359849780798
100.186,-24.7895922511816
100.187,-23.3805663883686
100.188,-22.2117453813553
100.189,-21.4303229004145
100.19,-21.2100502103567
100.191,-21.0414417088032
100.192,-20.910520106554
100.193,-20.8068937063217
100.194,-20.7233466207981
100.195,-20.6547845155001
100.196,-20.5977391451597
100.197,-20.5496307462454
100.198,-20.508661866188
100.199,-20.4734541475773
100.2,-20.4429347068071
100.201,-20.4163622111082
100.202,-20.3930921852589
100.203,-20.3726254403591
100.204,-20.3545652329922
100.205,-20.3385893255472
100.206,-20.3244276344776
100.207,-20.3118585050106
100.208,-20.3006993979216
100.209,-20.2908143401146
100.21,-20.2820133417845
100.211,-20.2742125838995
100.212,-20.2673189342022
100.213,-20.2612038701773
100.214,-20.2558357268572
100.215,-20.2510803937912
100.216,-20.2469024807215
100.217,-20.2432833611965
100.218,-20.2401299029589
100.219,-20.2373880892992
100.22,-20.2350113540888
100.221,-20.2329568564892
100.222,-20.2311463654041
100.223,-20.2296059578657
100.224,-20.228261128068
100.225,-20.2270690351725
100.226,-20.2260091900826
100.227,-20.2250611037016
100.228,-20.2241241931915
100.229,-20.2231872826815
100.23,-20.2221684157848
100.231,-20.2211141586304
100.232,-20.2199667692184
100.233,-20.2186480164528
100.234,-20.2170517295599
100.235,-20.2151890844107
100.236,-20.21299675107
100.237,-20.2104896306992
100.238,-20.207529887557
100.239,-20.2041026204824
100.24,-20.2001761645079
100.241,-20.1957300305367
100.242,-20.1906263828278
100.243,-20.18485032022
100.244,-20.1782863587141
100.245,-20.1710220426321
100.246,-20.1628878712654
100.247,-20.1537422835827
100.248,-20.1435517519712
100.249,-20.1322827488184
100.25,-20.1197192072868
100.251,-20.1057959347963
100.252,-20.090451464057
100.253,-20.0734362006187
100.254,-20.054629072547
100.255,-20.0338698923588
100.256,-20.0110208243132
100.257,-19.9856720864773
100.258,-19.9577491730452
100.259,-19.9269130825996
100.26,-19.8928788304329
100.261,-19.8552217334509
100.262,-19.8134183883667
100.263,-19.7670385241508
100.264,-19.7155382484198
100.265,-19.6581166237593
100.266,-19.5940416306257
100.267,-19.5309557020664
100.268,-19.5908360183239
100.269,-19.6577869355679
100.27,-19.7323113679886
100.271,-19.8147799819708
100.272,-19.9054200202227
100.273,-20.0043134391308
100.274,-20.1109945774078
100.275,-20.2249959111214
100.276,-20.3448329120874
100.277,-20.4690173268318
100.278,-20.59530839324
100.279,-20.7212008535862
100.28,-20.9138076752424
100.281,-21.2919283658266
100.282,-21.6599553823471
100.283,-22.0118779689074
100.284,-22.3432444036007
100.285,-22.6508378982544
100.286,-22.933654487133
100.287,-23.1913886964321
100.288,-23.4248470515013
100.289,-23.635558784008
100.29,-23.8034259527922
100.291,-23.9445492625237
100.292,-24.0706540644169
100.293,-24.1832695901394
100.294,-24.2834091186523
100.295,-24.3724565953016
100.296,-24.4513340294361
100.297,-24.5205890387297
100.298,-24.5811175554991
100.299,-24.6331952512264
100.3,-24.6774554252625
100.301,-24.7142240405083
100.302,-24.743527173996
100.303,-24.7654970735312
100.304,-24.7804187238216
100.305,-24.7878283262253
100.306,-24.7877258807421
100.307,-24.780111387372
100.308,-24.764608591795
100.309,-24.7409380972385
100.31,-24.7089676558971
100.311,-24.6682483702898
100.312,-24.6186442673206
100.313,-24.5594494044781
100.314,-24.4912095367908
100.315,-24.4133863598108
100.316,-24.326030164957
100.317,-24.2294985800982
100.318,-24.1241194307804
100.319,-24.0107402205467
100.32,-23.890221491456
100.321,-23.7640216946602
100.322,-23.6336048692465
100.323,-23.5008392482996
100.324,-23.3679581433535
100.325,-23.2371799647808
100.326,-23.1106299906969
100.327,-22.9772292077541
100.328,-22.8464845567942
100.329,-22.7284375578165
100.33,-22.6254351437092
100.331,-22.5393399596214
100.332,-22.4720761179924
100.333,-22.4253013730049
100.334,-22.4002450704575
100.335,-22.3986245691776
100.336,-22.4216338247061
100.337,-22.4706418812275
100.338,-22.5465390831232
100.339,-22.6499941200018
100.34,-22.7812826633453
100.341,-22.9151751846075
100.342,-23.0627357959747
100.343,-23.2283305376768
100.344,-23.4078466892242
100.345,-23.5963482409716
100.346,-23.7876493483782
100.347,-23.9753164350986
100.348,-24.1533890366554
100.349,-24.3157017976046
100.35,-24.4577340781689
100.351,-24.5760548859835
100.352,-24.667851626873
100.353,-24.7251261025667
100.354,-24.7127171605825
100.355,-24.6949456632137
100.356,-24.6721468865871
100.357,-24.6442388743162
100.358,-24.5996415615082
100.359,-24.4863908737898
100.36,-24.3493467569351
100.361,-24.1929851472378
100.362,-24.0235701203346
100.363,-23.847920820117
100.364,-23.6741546541452
100.365,-23.509681224823
100.366,-23.3612768352032
100.367,-23.2346430420876
100.368,-23.1335815042257
100.369,-23.0610594153404
100.37,-23.0188462883234
100.371,-23.0079963803291
100.372,-23.0283755809069
100.373,-23.0797324329615
100.374,-23.1607109308243
100.375,-23.2695303857327
100.376,-23.4024822711945
100.377,-23.5551409423351
100.378,-23.7206928431988
100.379,-23.8921605050564
100.38,-24.0614227950573
100.381,-24.1159405559301
100.382,-24.1215229034424
100.383,-24.125711992383
100.384,-24.1261869668961
100.385,-24.1223890334368
100.386,-24.1131484508514
100.387,-24.0981094539165
100.388,-24.0774676203728
100.389,-24.0515358746052
100.39,-24.0205600857735
100.391,-23.9853896200657
100.392,-23.9468030631542
100.393,-23.9053331315517
100.394,-23.861788213253
100.395,-23.8171853125095
100.396,-23.7717740237713
100.397,-23.7266626209021
100.398,-23.6820988357067
100.399,-23.6387401819229
100.4,-23.5285796225071
100.401,-23.4088040888309
100.402,-23.2958570122719
100.403,-23.1912098824978
100.404,-23.096214979887
100.405,-23.0118539184332
100.406,-22.9396559298038
100.407,-22.8800494223833
100.408,-22.8345915675163
100.409,-22.8042379021645
100.41,-22.7903332561255
100.411,-22.7945894002914
100.412,-22.8184685111046
100.413,-22.863794118166
100.414,-22.9324400424957
100.415,-23.0264067649841
100.416,-23.1158621609211
100.417,-23.1096707284451
100.418,-23.111492395401
100.419,-23.1222081929445
100.42,-23.1422055512667
100.421,-23.1713075190783
100.422,-23.2062004506588
100.423,-23.2438035309315
100.424,-23.2787728309631
100.425,-23.3064014464617
100.426,-23.2651960104704
100.427,-23.1903344392776
100.428,-23.1376904994249
100.429,-23.1102518737316
100.43,-23.1118854135275
100.431,-23.0275206267834
100.432,-22.8903330862522
100.433,-22.7474421262741
100.434,-22.6162038743496
100.435,-22.5085392594337
100.436,-22.4267207086086
100.437,-22.3691947758198
100.438,-22.3357453942299
100.439,-22.3315116018057
100.44,-22.3641954362392
100.441,-22.4335845559835
100.442,-22.5133877247572
100.443,-22.5365087389946
100.444,-22.4721431732178
100.445,-22.4066805094481
100.446,-22.2301557660103
100.447,-22.0581777393818
100.448,-21.9374485313892
100.449,-21.8765269964933
100.45,-21.8788478523493
100.451,-21.9492390751839
100.452,-22.0468230545521
100.453,-22.0125820487738
100.454,-21.9560973346233
100.455,-21.7518266290426
100.456,-21.5795449912548
100.457,-21.4993990957737
100.458,-21.5192902833223
100.459,-21.6248948127031
100.46,-21.6245166957378
100.461,-21.5673968195915
100.462,-21.3415902107954
100.463,-21.1914367973804
100.464,-21.1757775396109
100.465,-21.2826579809189
100.466,-21.2623346596956
100.467,-21.1766436696053
100.468,-20.9487527608871
100.469,-20.8656303584576
100.47,-20.9511145949364
100.471,-20.9467802196741
100.472,-20.8627469837666
100.473,-20.6358730792999
100.474,-20.5990429967642
100.475,-20.7268241792917
100.476,-20.644648000598
100.477,-20.4234775155783
100.478,-20.3277692198753
100.479,-20.4484462738037
100.48,-20.3665960580111
100.481,-20.1513636857271
100.482,-20.0895555317402
100.483,-20.1420243829489
100.484,-20.0725551694632
100.485,-19.8497604578733
100.486,-19.9225414544344
100.487,-19.849706441164
100.488,-19.6613725274801
100.489,-19.6539275348186
100.49,-19.6072496473789
100.491,-19.4607451558113
100.492,-19.4282047450542
100.493,-19.3774458020926
100.494,-19.2282311618328
100.495,-19.2394182085991
100.496,-19.1650427877903
100.497,-18.9845561981201
100.498,-19.0088618546724
100.499,-18.9230665564537
100.5,-18.7899339944124
100.501,-18.7347680330276
100.502,-18.5985993593931
100.503,-18.5905657708645
100.504,-18.4951033443213
100.505,-18.4359513223171
100.506,-18.3617305010557
100.507,-18.2157158851624
100.508,-18.1492306292057
100.509,-18.0307850241661
100.51,-17.966017127037
100.511,-17.8599245846272
100.512,-17.7901722490788
100.513,-17.6903642714024
100.514,-17.6133364439011
100.515,-17.5184980034828
100.516,-17.4365025013685
100.517,-17.3511598259211
100.518,-17.2704644501209
100.519,-17.2011703252792
100.52,-17.1286351978779
100.521,-17.0150864869356
100.522,-16.9087704271078
100.523,-16.7886409908533
100.524,-16.7193356901407
100.525,-16.6340656578541
100.526,-16.5395103394985
100.527,-16.4381843060255
100.528,-16.3179449737072
100.529,-16.2769462913275
100.53,-16.1638259887695
100.531,-16.0247981548309
100.532,-15.9772299230099
100.533,-15.8691592514515
100.534,-15.7395992428064
100.535,-15.6514532864094
100.536,-15.5730685219169
100.537,-15.4748931527138
100.538,-15.3314555063844
100.539,-15.2761619538069
100.54,-15.1764042675495
100.541,-15.0550156831741
100.542,-14.9299772456288
100.543,-14.8729383945465
100.544,-14.7723369300365
100.545,-14.6441925317049
100.546,-14.5201813429594
100.547,-14.4563186913729
100.548,-14.3588650971651
100.549,-14.2278373241425
100.55,-14.1030866652727
100.551,-14.0361115336418
100.552,-13.938364572823
100.553,-13.7974079698324
100.554,-13.6829046532512
100.555,-13.6198783293366
100.556,-13.5018490254879
100.557,-13.3535591885448
100.558,-13.2726738229394
100.559,-13.1766796112061
100.56,-13.0259152501822
100.561,-12.9351196810603
100.562,-12.839830480516
100.563,-12.686662375927
100.564,-12.6095041632652
100.565,-12.4820228666067
100.566,-12.3507361859083
100.567,-12.2586227953434
100.568,-12.1110985055566
100.569,-12.0189664885402
100.57,-11.8747083470225
100.571,-11.7771793156862
100.572,-11.634074151516
100.573,-11.5315522998571
100.574,-11.3931195810437
100.575,-11.2964659929276
100.576,-11.1714219674468
100.577,-11.021263897419
100.578,-10.9114199876785
100.579,-10.7859978452325
100.58,-10.6450924649835
100.581,-10.5213839560747
100.582,-10.3967785835266
100.583,-10.2649014443159
100.584,-10.1406499743462
100.585,-10.0186234340072
100.586,-9.88680403679609
100.587,-9.75868664681911
100.588,-9.63008403778076
100.589,-9.50072985142469
100.59,-9.36918519437313
100.591,-9.23578161746264
100.592,-9.10138618201017
100.593,-8.97353980690241
100.594,-8.82437825202942
100.595,-8.67656711488962
100.596,-8.54308903217316
100.597,-8.37819930166006
100.598,-8.22855532169342
100.599,-8.06154310703278
100.6,-7.90818128734827
