Structure Acceleration, RAO-Based Response
Line A: Structure Acceleration, RAO-Based Response - Global Z (Trimaran - Center of Gravity relative to Origin of Fixed Reference Axes (FRA)) [mm/s²]

*Time (s),Line A (mm/s²)
99.4,-53.3832497894764
99.401,-53.6933653056622
99.402,-54.0065243840218
99.403,-54.3158352375031
99.404,-54.6281598508358
99.405,-54.9366362392902
99.406,-55.2481226623058
99.40701,-55.5591844022274
99.408,-55.8698177337646
99.409,-56.1766140162945
99.41,-56.4863868057728
99.411,-56.792326271534
99.412,-57.1012198925018
99.413,-57.4062839150429
99.414,-57.7143169939518
99.415,-58.0185316503048
99.416,-58.3256520330906
99.417,-58.628972619772
99.418,-58.9352138340473
99.419,-59.2376366257668
99.42,-59.5429725944996
99.42101,-59.8478391766548
99.422,-60.1522400975227
99.423,-60.4528561234474
99.424,-60.7563480734825
99.425,-61.0593631863594
99.426,-61.3619163632393
99.427,-61.6606548428535
99.428,-61.9622655212879
99.429,-62.2633770108223
99.43,-62.5607222318649
99.431,-62.8608912229538
99.432,-63.1572604179382
99.433,-63.4564682841301
99.434,-63.7518987059593
99.43501,-64.0533864498138
99.436,-64.3511116504669
99.437,-64.64833766222
99.438,-64.941793680191
99.439,-65.2380287647247
99.44,-65.5305087566376
99.441,-65.8257156610489
99.442,-66.1171972751617
99.443,-66.4146319031715
99.444,-66.7050927877426
99.445,-66.998265683651
99.446,-67.2877207398415
99.447,-67.5798803567886
99.448,-67.8746849298477
99.44901,-68.1657940149307
99.45,-68.4531703591347
99.451,-68.7432140111923
99.452,-69.0295398235321
99.453,-69.3217068910599
99.454,-69.6069747209549
99.455,-69.8948726058006
99.456,-70.1854228973389
99.457,-70.4690963029861
99.458,-70.7553550601006
99.459,-71.0379630327225
99.46,-71.3262781500816
99.461,-71.6077834367752
99.462,-71.8918591737747
99.46301,-72.1785053610802
99.464,-72.4614709615707
99.465,-72.7438628673553
99.466,-73.0257034301758
99.467,-73.3038932085037
99.468,-73.5876858234406
99.469,-73.8647431135178
99.47,-74.1473734378815
99.471,-74.4232982397079
99.472,-74.7047662734985
99.473,-74.9795511364937
99.474,-75.2598345279694
99.475,-75.5364745855331
99.476,-75.8125483989716
99.47701,-76.0880410671234
99.478,-76.3659626245499
99.479,-76.6372382640839
99.48,-76.913945376873
99.481,-77.1870464086533
99.482,-77.4595141410828
99.483,-77.7344033122063
99.484,-78.0056715011597
99.485,-78.2763361930847
99.486,-78.5463899374008
99.487,-78.8187831640244
99.488,-79.0875852108002
99.489,-79.355776309967
99.49,-79.6233266592026
99.491,-79.8961520195007
99.492,-80.1624432206154
99.493,-80.4310217499733
99.494,-80.6960538029671
99.495,-80.9633359313011
99.496,-81.2270566821098
99.497,-81.4930349588394
99.498,-81.7554742097855
99.499,-82.0201188325882
99.5,-82.2812467813492
99.501,-82.5445428490639
99.502,-82.8072056174278
99.503,-83.0691605806351
99.504,-83.3304449915886
99.505,-83.5910141468048
99.506,-83.8509276509285
99.507,-84.1101333498955
99.508,-84.3686237931252
99.509,-84.6264213323593
99.51,-84.8863050341606
99.511,-85.1398706436157
99.512,-85.3983238339424
99.513,-85.6532379984856
99.514,-85.9074369072914
99.515,-86.160883307457
99.516,-86.4163637161255
99.517,-86.6683274507523
99.518,-86.9195386767387
99.519,-87.1727615594864
99.52,-87.4251574277878
99.521,-87.6740887761116
99.522,-87.9249349236488
99.523,-88.1722718477249
99.524,-88.4242206811905
99.525,-88.6699706315994
99.526,-88.9175981283188
99.527,-89.1616865992546
99.528,-89.4103199243546
99.529,-89.6527841687202
99.53,-89.8996740579605
99.531,-90.1430696249008
99.53201,-90.388186275959
99.533,-90.6271487474442
99.534,-90.8704996109009
99.535,-91.1076664924622
99.536,-91.3491249084473
99.537,-91.5870815515518
99.538,-91.8265953660011
99.539,-92.0651108026505
99.54,-92.3001021146774
99.541,-92.5366133451462
99.542,-92.7695333957672
99.543,-93.0039286613464
99.544,-93.2346880435944
99.545,-93.4668928384781
99.54601,-93.6979353427887
99.547,-93.9302891492844
99.548,-94.1564589738846
99.549,-94.3838208913803
99.55,-94.6099013090134
99.551,-94.8346704244614
99.552,-95.0580686330795
99.553,-95.2800065279007
99.554,-95.5004468560219
99.555,-95.7217812538147
99.556,-95.9390103816986
99.557,-96.154510974884
99.558,-96.3706374168396
99.559,-96.5824127197266
99.56001,-96.7945232987404
99.561,-97.0044806599617
99.562,-97.2097218036652
99.563,-97.4171832203865
99.564,-97.6171419024467
99.565,-97.8165417909622
99.566,-98.0126708745956
99.567,-98.2052311301231
99.568,-98.3938202261925
99.569,-98.5779911279678
99.57,-98.7571477890015
99.571,-98.930649459362
99.572,-99.0976765751839
99.573,-99.257156252861
99.57401,-99.4123518466949
99.575,-99.5525270700455
99.576,-99.6823608875275
99.577,-99.7945815324783
99.578,-99.8900309205055
99.579,-99.9592766165733
99.58,-99.9999642372131
99.581,-99.9978482723236
99.582,-99.9426692724228
99.583,-99.8077243566513
99.584,-99.5633006095886
99.585,-99.1420745849609
99.586,-98.4360799193382
99.587,-97.2534269094467
99.58801,-94.058021903038
99.589,-86.8695005774498
99.59,-77.9461264610291
99.591,-69.7034746408463
99.592,-64.2192512750626
99.593,-62.4337121844292
99.594,-61.4848211407661
99.595,-60.869887471199
99.596,-60.4585111141205
99.597,-60.1809248328209
99.598,-59.9918812513351
99.599,-59.8675720393658
99.6,-59.7884207963943
99.601,-59.7455054521561
99.60201,-59.7295314073563
99.603,-59.7348138689995
99.604,-59.7558803856373
99.605,-59.792123734951
99.606,-59.8373636603355
99.607,-59.8946735262871
99.608,-59.9588751792908
99.609,-60.0300282239914
99.61,-60.1071193814278
99.611,-60.1905658841133
99.612,-60.2773129940033
99.613,-60.3680238127708
99.614,-60.4621805250645
99.615,-60.558196157217
99.616,-60.6593228876591
99.617,-60.7616528868675
99.618,-60.8649663627148
99.619,-60.9713569283485
99.62,-61.0806010663509
99.621,-61.1890405416489
99.622,-61.2999573349953
99.623,-61.4109002053738
99.624,-61.5240260958672
99.625,-61.6368837654591
99.626,-61.7516450583935
99.627,-61.8659183382988
99.628,-61.9807094335556
99.629,-62.0959028601646
99.63,-62.2136145830154
99.631,-62.3292960226536
99.632,-62.4461472034454
99.633,-62.5607892870903
99.634,-62.6774653792381
99.635,-62.7927780151367
99.636,-62.9077106714249
99.637,-63.0220919847488
99.638,-63.1357952952385
99.639,-63.2486566901207
99.64,-63.3616000413895
99.641,-63.4723827242851
99.642,-63.5819137096405
99.643,-63.6900588870049
99.644,-63.7977123260498
99.645,-63.9026910066605
99.646,-64.0058219432831
99.647,-64.1079768538475
99.648,-64.2059296369553
99.649,-64.3035396933556
99.65,-64.3965899944305
99.651,-64.4888132810593
99.652,-64.5760223269463
99.653,-64.6619200706482
99.654,-64.7422820329666
99.655,-64.820684492588
99.656,-64.8938938975334
99.65701,-64.9634748697281
99.658,-65.0270581245422
99.659,-65.0852024555206
99.66,-65.1373267173767
99.661,-65.1829317212105
99.662,-65.2213543653488
99.663,-65.2518719434738
99.664,-65.273717045784
99.665,-65.2859285473824
99.666,-65.2874931693077
99.667,-65.2771666646004
99.668,-65.2544572949409
99.669,-65.215066075325
99.67,-65.160721540451
99.67101,-65.0864765048027
99.672,-64.9907141923904
99.673,-65.0286227464676
99.674,-65.3379485011101
99.675,-65.6841695308685
99.676,-66.0715699195862
99.677,-66.509447991848
99.678,-67.008264362812
99.679,-67.5800889730453
99.68,-68.2432278990746
99.681,-69.0132454037666
99.682,-69.9142217636108
99.683,-70.9673315286636
99.684,-72.1955224871635
99.68501,-73.6272037029266
99.686,-76.721116900444
99.687,-80.0805240869522
99.688,-83.597794175148
99.689,-87.1327370405197
99.69,-90.5514657497406
99.691,-93.6280488967896
99.692,-96.2180197238922
99.693,-98.5473245382309
99.694,-100.624829530716
99.695,-102.468580007553
99.696,-104.102805256844
99.697,-105.557605624199
99.698,-106.857433915138
99.69901,-108.024664223194
99.7,-109.078571200371
99.701,-110.034361481667
99.702,-110.907331109047
99.703,-111.706674098969
99.704,-112.413369119167
99.705,-112.803637981415
99.706,-113.165132701397
99.707,-113.503463566303
99.708,-113.818973302841
99.709,-114.115327596664
99.71,-114.392146468163
99.711,-114.652380347252
99.712,-114.895105361938
99.71301,-115.122757852077
99.714,-115.334078669548
99.715,-115.530177950859
99.716,-115.710467100143
99.717,-115.876629948616
99.718,-116.026945412159
99.719,-116.162851452827
99.72,-116.282448172569
99.721,-116.386249661446
99.722,-116.474658250809
99.723,-116.544768214226
99.724,-116.598516702652
99.725,-116.633877158165
99.726,-116.651818156242
99.72701,-116.65040999651
99.728,-116.629868745804
99.729,-116.589993238449
99.73,-116.530537605286
99.731,-116.450734436512
99.732,-116.352215409279
99.733,-116.233974695206
99.734,-116.09759926796
99.735,-115.943491458893
99.736,-115.774527192116
99.737,-115.591466426849
99.738,-115.397319197655
99.739,-115.195006132126
99.74,-114.987820386887
99.741,-114.66334015131
99.742,-114.231303334236
99.743,-113.815918564796
99.744,-113.425202667713
99.745,-113.066673278809
99.746,-112.748801708221
99.747,-112.479537725449
99.748,-112.266421318054
99.749,-112.116485834122
99.75,-112.037897109985
99.751,-112.036794424057
99.752,-112.120106816292
99.753,-112.295530736446
99.754,-112.568736076355
99.755,-112.946927547455
99.756,-113.435216248035
99.757,-114.03913795948
99.758,-114.762157201767
99.759,-115.606881678104
99.76,-116.168826818466
99.761,-116.757489740849
99.762,-117.3956990242
99.763,-118.075460195541
99.764,-118.782952427864
99.765,-119.504898786545
99.766,-120.224572718143
99.767,-120.926976203918
99.76801,-121.597036719322
99.769,-122.222267091274
99.77,-122.794196009636
99.771,-123.307928442955
99.772,-123.760834336281
99.773,-124.154254794121
99.774,-124.491006135941
99.775,-124.368749558926
99.776,-124.156713485718
99.777,-123.976483941078
99.778,-123.829737305641
99.779,-123.71763586998
99.78,-123.641051352024
99.781,-123.599082231522
99.78201,-123.59119951725
99.783,-123.615235090256
99.784,-123.669475317001
99.785,-123.751491308212
99.786,-123.858764767647
99.787,-123.987697064877
99.788,-124.13564324379
99.789,-124.298989772797
99.79,-124.474138021469
99.791,-124.657347798347
99.792,-124.845370650291
99.793,-124.7338950634
99.794,-124.548137187958
99.795,-124.351412057877
99.79601,-124.146349728107
99.797,-123.935200273991
99.798,-123.72101098299
99.799,-123.50644916296
99.8,-123.294562101364
99.801,-123.08806180954
99.802,-122.889772057533
99.803,-122.701928019524
99.804,-122.526980936527
99.805,-122.366771101952
99.806,-122.223004698753
99.807,-122.097261250019
99.808,-121.990673243999
99.809,-121.904276311398
99.81001,-121.83902412653
99.811,-121.795646846294
99.812,-121.774703264236
99.813,-121.776774525642
99.814,-121.802479028702
99.815,-121.852159500122
99.816,-121.926315128803
99.817,-122.025191783905
99.818,-122.149042785168
99.819,-122.297748923302
99.82,-122.471265494823
99.821,-122.668571770191
99.822,-122.888788580894
99.823,-123.129859566689
99.82401,-123.389221727848
99.825,-123.663604259491
99.826,-123.948253691196
99.827,-124.237976968288
99.828,-124.526843428612
99.829,-124.724566936493
99.83,-124.39538538456
99.831,-124.042809009552
99.832,-123.673640191555
99.833,-123.298183083534
99.834,-122.927576303482
99.835,-122.576966881752
99.836,-122.261226177216
99.837,-121.997408568859
99.83801,-121.80070579052
99.839,-121.685817837715
99.84,-121.664226055145
99.841,-121.742434799671
99.842,-121.917575597763
99.843,-122.179642319679
99.844,-122.504249215126
99.845,-122.859761118889
99.846,-123.206280171871
99.847,-123.504921793938
99.848,-123.72262775898
99.849,-123.834267258644
99.85,-123.820945620537
99.851,-123.666346073151
99.85201,-123.355716466904
99.853,-122.884780168533
99.854,-122.273117303848
99.855,-121.583208441734
99.856,-120.91950327158
99.857,-120.409145951271
99.858,-120.159804821014
99.859,-120.227679610252
99.86,-120.590053498745
99.861,-121.137171983719
99.862,-121.699720621109
99.863,-122.10687994957
99.864,-122.242495417595
99.865,-122.045651078224
99.866,-121.505081653595
99.867,-120.696112513542
99.868,-119.831912219524
99.869,-119.219623506069
99.87,-119.105406105518
99.871,-119.521953165531
99.872,-120.242081582546
99.873,-120.880782604218
99.874,-121.118634939194
99.875,-120.80979347229
99.876,-119.993291795254
99.877,-118.978649377823
99.878,-118.308842182159
99.879,-118.388175964355
99.88,-119.122862815857
99.881,-119.940042495728
99.882,-120.238617062569
99.883,-119.764007627964
99.884,-118.696361780167
99.885,-117.735654115677
99.886,-117.652453482151
99.887,-118.467912077904
99.888,-119.348704814911
99.889,-119.443692266941
99.89,-118.561305105686
99.891,-117.362052202225
99.892,-117.019861936569
99.89301,-117.857746779919
99.894,-118.80998313427
99.895,-118.728041648865
99.896,-117.556437849998
99.897,-116.539299488068
99.898,-116.944663226604
99.899,-118.11138689518
99.9,-118.339151144028
99.901,-117.18662083149
99.902,-116.107873618603
99.903,-116.685673594475
99.904,-117.870897054672
99.905,-117.664329707623
99.906,-116.218850016594
99.90701,-115.842558443546
99.908,-117.114149034023
99.909,-117.571130394936
99.91,-116.236411035061
99.911,-115.458332002163
99.912,-116.69684946537
99.913,-117.271773517132
99.914,-115.858502686024
99.915,-115.283124148846
99.916,-116.712599992752
99.917,-116.772994399071
99.918,-115.166679024696
99.919,-115.556575357914
99.92,-116.853758692741
99.92101,-115.714363753796
99.922,-114.860825240612
99.923,-116.401918232441
99.924,-116.100519895554
99.925,-114.635184407234
99.926,-115.956053137779
99.927,-116.184957325459
99.928,-114.545039832592
99.929,-115.752436220646
99.93,-116.057932376862
99.931,-114.42868411541
99.932,-115.82899838686
99.933,-115.712508559227
99.934,-114.3808811903
99.93501,-116.075724363327
99.936,-115.110330283642
99.937,-114.680923521519
99.938,-116.158425807953
99.939,-114.448890089989
99.94,-115.404963493347
99.941,-115.692034363747
99.942,-114.292874932289
99.943,-116.05578660965
99.944,-114.783823490143
99.945,-114.964202046394
99.946,-115.960568189621
99.947,-114.178769290447
99.948,-115.864530205727
99.94901,-115.137003362179
99.95,-114.6270185709
99.951,-116.132415831089
99.952,-114.308319985867
99.953,-115.470826625824
99.954,-115.685045719147
99.955,-114.064134657383
99.956,-116.04093760252
99.957,-115.057542920113
99.958,-114.549212157726
99.959,-116.197526454926
99.96,-114.665955305099
99.961,-114.842154085636
99.962,-116.197526454926
99.96301,-114.498779177666
99.964,-114.776022732258
99.965,-116.21830612421
99.966,-114.840343594551
99.967,-114.10415917635
99.968,-116.00150167942
99.969,-115.652829408646
99.97,-113.746918737888
99.971,-114.810928702354
99.972,-116.172939538956
99.973,-115.521997213364
99.974,-113.764807581902
99.975,-114.043168723583
99.976,-115.587070584297
99.97701,-116.236515343189
99.978,-115.510925650597
99.979,-114.226348698139
99.98,-113.138385117054
99.981,-113.650754094124
99.982,-114.657215774059
99.983,-115.585625171661
99.984,-116.23252928257
99.985,-116.537109017372
99.986,-116.588234901428
99.987,-116.501718759537
99.988,-116.382583975792
99.989,-116.30180478096
99.99,-116.291023790836
99.991,-116.324841976166
99.992,-116.293892264366
99.993,-116.007633507252
99.994,-115.291550755501
99.995,-114.216007292271
99.996,-113.36325109005
99.997,-113.362848758698
99.998,-113.683372735977
99.999,-112.989082932472
100,-111.648745834827
