Structure Acceleration, RAO-Based Response
Line A: Structure Acceleration, RAO-Based Response - Global Z (Trimaran - Center of Gravity relative to Origin of Fixed Reference Axes (FRA)) [mm/s²]

*Time (s),Line A (mm/s²)
100,-3.34569136612117
100.001,-3.3455949742347
100.002,-3.34549602121115
100.003,-3.34539636969566
100.004,-3.34529438987374
100.005,-3.34519194439054
100.006,-3.34508647210896
100.007,-3.34497960284352
100.008,-3.34487087093294
100.009,-3.34476190619171
100.01,-3.34464991465211
100.011,-3.34453815594316
100.012,-3.34442313760519
100.013,-3.34430788643658
100.014,-3.34418984130025
100.015,-3.34407133050263
100.016,-3.34395002573729
100.017,-3.34382732398808
100.018,-3.3437036909163
100.019,-3.34357749670744
100.02,-3.34345106966794
100.021,-3.34332161583006
100.022,-3.34319053217769
100.023,-3.34305944852531
100.024,-3.34292510524392
100.025,-3.34278959780931
100.026,-3.34265362471342
100.027,-3.34251439198852
100.028,-3.3423756249249
100.029,-3.34223336540163
100.03,-3.34209087304771
100.031,-3.34194558672607
100.032,-3.3417996019125
100.033,-3.34165128879249
100.034,-3.34150274284184
100.035,-3.34134930744767
100.036,-3.34119750186801
100.037,-3.34104220382869
100.038,-3.34088760428131
100.039,-3.34072904661298
100.04,-3.34057095460594
100.041,-3.34040960296988
100.042,-3.34024825133383
100.043,-3.34008340723813
100.044,-3.33991716615856
100.045,-3.33975115790963
100.046,-3.33958212286234
100.047,-3.33941308781505
100.048,-3.33924009464681
100.049,-3.33906570449471
100.05,-3.33889154717326
100.051,-3.33871459588408
100.052,-3.33853554911911
100.053,-3.33835696801543
100.054,-3.33817466162145
100.055,-3.33799258805811
100.056,-3.33780702203512
100.057,-3.33762215450406
100.058,-3.33743379451334
100.059,-3.33724659867585
100.06,-3.33705358207226
100.061,-3.33686266094446
100.062,-3.33666731603444
100.063,-3.33647057414055
100.064,-3.33627266809344
100.065,-3.33607546053827
100.066,-3.33587359637022
100.067,-3.33567103371024
100.068,-3.33546637557447
100.069,-3.33526218309999
100.07,-3.33505473099649
100.071,-3.33484471775591
100.072,-3.33463563583791
100.073,-3.33442375995219
100.074,-3.33421141840518
100.075,-3.33399558439851
100.076,-3.33378068171442
100.077,-3.33356158807874
100.078,-3.33334086462855
100.079,-3.33311897702515
100.08,-3.33289545960724
100.081,-3.33267077803612
100.082,-3.33244586363435
100.083,-3.33221768960357
100.084,-3.33199044689536
100.085,-3.33175831474364
100.086,-3.33152734674513
100.087,-3.33129288628697
100.088,-3.33105912432075
100.089,-3.33081814460456
100.09,-3.33058158867061
100.091,-3.33033804781735
100.092,-3.33009799942374
100.093,-3.32985306158662
100.094,-3.32961045205593
100.095,-3.32936039194465
100.096,-3.32911405712366
100.097,-3.32886376418173
100.098,-3.32861370407045
100.099,-3.3283606171608
100.1,-3.32810287363827
100.101,-3.32784885540605
100.102,-3.3275899477303
100.103,-3.32733290269971
100.104,-3.32706933841109
100.105,-3.32680577412248
100.106,-3.32654197700322
100.107,-3.32627608440816
100.108,-3.32600832916796
100.109,-3.32574243657291
100.11,-3.3254693262279
100.111,-3.32520040683448
100.112,-3.32492729648948
100.113,-3.32465162500739
100.114,-3.32437502220273
100.115,-3.32410028204322
100.116,-3.32381832413375
100.117,-3.32354055717587
100.118,-3.32325487397611
100.119,-3.32297151908278
100.12,-3.32268606871367
100.121,-3.32239922136068
100.122,-3.32211167551577
100.123,-3.32182296551764
100.124,-3.32153169438243
100.125,-3.32123995758593
100.126,-3.32094659097493
100.127,-3.32064926624298
100.128,-3.32035613246262
100.129,-3.32005554810166
100.13,-3.31975752487779
100.131,-3.31945740617812
100.132,-3.3191533293575
100.133,-3.3188546076417
100.134,-3.31854866817594
100.135,-3.31824016757309
100.136,-3.3179372549057
100.137,-3.31762852147222
100.138,-3.31732095219195
100.139,-3.31701268441975
100.14,-3.31670278683305
100.141,-3.31638916395605
100.142,-3.31608182750642
100.143,-3.31576773896813
100.144,-3.31545481458306
100.145,-3.31513816490769
100.146,-3.3148261718452
100.147,-3.3145088236779
100.148,-3.31419636495411
100.149,-3.3138794824481
100.15,-3.31356632523239
100.151,-3.31324967555702
100.152,-3.31294140778482
100.153,-3.31262615509331
100.154,-3.31231276504695
100.155,-3.31200379878283
100.156,-3.31169413402677
100.157,-3.31139168702066
100.158,-3.31108691170812
100.159,-3.31079121679068
100.16,-3.31049645319581
100.161,-3.31020774319768
100.162,-3.30992671661079
100.163,-3.3096584957093
100.164,-3.30939772538841
100.165,-3.30915511585772
100.166,-3.30892647616565
100.167,-3.30872600898147
100.168,-3.30854975618422
100.169,-3.3084184397012
100.17,-3.30833368934691
100.171,-3.30832228064537
100.172,-3.30841122195125
100.173,-3.30865103751421
100.174,-3.30910785123706
100.175,-3.30992951057851
100.176,-3.31135117448866
100.177,-3.3139013685286
100.178,-3.31872026436031
100.179,-3.32860718481243
100.18,-3.35455383174121
100.181,-3.401082707569
100.182,-3.44589375890791
100.183,-3.47152049653232
100.184,-3.48122743889689
100.185,-3.48608009517193
100.186,-3.48871387541294
100.187,-3.49021586589515
100.188,-3.49109014496207
100.189,-3.49158840253949
100.19,-3.49185196682811
100.191,-3.49194440059364
100.192,-3.49193112924695
100.193,-3.4918300807476
100.194,-3.49167129024863
100.195,-3.49145801737905
100.196,-3.49121168255806
100.197,-3.49093042314053
100.198,-3.49062657915056
100.199,-3.49029526114464
100.2,-3.48995090462267
100.201,-3.48958419635892
100.202,-3.4892032854259
100.203,-3.48880980163813
100.204,-3.48840793594718
100.205,-3.48799023777246
100.206,-3.48756858147681
100.207,-3.48713179118931
100.208,-3.4866901114583
100.209,-3.48623981699347
100.21,-3.48577718250453
100.211,-3.48531175404787
100.212,-3.48483351990581
100.213,-3.48435342311859
100.214,-3.48386121913791
100.215,-3.48336668685079
100.216,-3.48286214284599
100.217,-3.48235643468797
100.218,-3.48184001632035
100.219,-3.48132220096886
100.22,-3.48080042749643
100.221,-3.4802716691047
100.222,-3.47973522730172
100.223,-3.47919925116003
100.224,-3.47865931689739
100.225,-3.47811705432832
100.226,-3.47756687551737
100.227,-3.47701902501285
100.228,-3.47647070884705
100.229,-3.47591657191515
100.23,-3.47536313347518
100.231,-3.47482180222869
100.232,-3.47427255474031
100.233,-3.47373075783253
100.234,-3.47318919375539
100.235,-3.47266276367009
100.236,-3.47213423810899
100.237,-3.47161199897528
100.238,-3.4711102489382
100.239,-3.47060756757855
100.24,-3.47012258134782
100.241,-3.46964551135898
100.242,-3.469193354249
100.243,-3.46874794922769
100.244,-3.46831837669015
100.245,-3.46791325137019
100.246,-3.4675276838243
100.247,-3.46715981140733
100.248,-3.46681824885309
100.249,-3.46650206483901
100.25,-3.46621032804251
100.251,-3.46593838185072
100.252,-3.46569716930389
100.253,-3.4654822666198
100.254,-3.46529204398394
100.255,-3.46511928364635
100.256,-3.46496631391346
100.257,-3.46483383327723
100.258,-3.46471159718931
100.259,-3.4645872656256
100.26,-3.46446014009416
100.261,-3.46394069492817
100.262,-3.46297328360379
100.263,-3.4618629142642
100.264,-3.46059049479663
100.265,-3.45913553610444
100.266,-3.45744541846216
100.267,-3.45550500787795
100.268,-3.45328031107783
100.269,-3.45074664801359
100.27,-3.4478846937418
100.271,-3.44470306299627
100.272,-3.4412001259625
100.273,-3.43741453252733
100.274,-3.43338074162602
100.275,-3.42915300279856
100.276,-3.42382141388953
100.277,-3.41824884526432
100.278,-3.41270724311471
100.279,-3.40728648006916
100.28,-3.40202869847417
100.281,-3.39698675088584
100.282,-3.39219789020717
100.283,-3.38768842630088
100.284,-3.38348629884422
100.285,-3.37959080934525
100.286,-3.37602361105382
100.287,-3.37278819642961
100.288,-3.36988130584359
100.289,-3.36733111180365
100.29,-3.36511712521315
100.291,-3.36326705291867
100.292,-3.3617930021137
100.293,-3.36069334298372
100.294,-3.35999741218984
100.295,-3.35970777086914
100.296,-3.35985398851335
100.297,-3.36044328287244
100.298,-3.36150708608329
100.299,-3.36302118375897
100.3,-3.36502469144762
100.301,-3.3674796577543
100.302,-3.37036629207432
100.303,-3.37362033315003
100.304,-3.37717798538506
100.305,-3.38092423044145
100.306,-3.3847657032311
100.307,-3.38854640722275
100.308,-3.39216203428805
100.309,-3.39547568000853
100.31,-3.39839444495738
100.311,-3.4008224029094
100.312,-3.40270134620368
100.313,-3.40398214757442
100.314,-3.404630580917
100.315,-3.40459821745753
100.316,-3.40386270545423
100.317,-3.40235373005271
100.318,-3.40004195459187
100.319,-3.39684588834643
100.32,-3.39273316785693
100.321,-3.38768283836544
100.322,-3.38170235045254
100.323,-3.3749071881175
100.324,-3.3674796577543
100.325,-3.3597219735384
100.326,-3.35196824744344
100.327,-3.34458868019283
100.328,-3.33791109733284
100.329,-3.33217950537801
100.33,-3.32755642011762
100.331,-3.32410866394639
100.332,-3.32199269905686
100.333,-3.32126161083579
100.334,-3.32193030044436
100.335,-3.32398735918105
100.336,-3.32729099318385
100.337,-3.3317084889859
100.338,-3.33698536269367
100.339,-3.34274116903543
100.34,-3.34850931540132
100.341,-3.35376360453665
100.342,-3.35808913223445
100.343,-3.36115015670657
100.344,-3.36270150728524
100.345,-3.36260139010847
100.346,-3.36072547361255
100.347,-3.35701834410429
100.348,-3.35147767327726
100.349,-3.3442578278482
100.35,-3.33575904369354
100.351,-3.32662416622043
100.352,-3.31770163029432
100.353,-3.30966198816895
100.354,-3.30326613038778
100.355,-3.29898484051228
100.356,-3.29704815521836
100.357,-3.29750101082027
100.358,-3.30028915777802
100.359,-3.30514833331108
100.36,-3.31154046580195
100.361,-3.31848813220859
100.362,-3.32517735660076
100.363,-3.33064398728311
100.364,-3.33421328105032
100.365,-3.33543703891337
100.366,-3.33411968313158
100.367,-3.3302390947938
100.368,-3.3239412587136
100.369,-3.31571628339589
100.37,-3.30639933235943
100.371,-3.29689122736454
100.372,-3.28846415504813
100.373,-3.28197539784014
100.374,-3.27789387665689
100.375,-3.27636278234422
100.376,-3.27734835445881
100.377,-3.2806743402034
100.378,-3.28596844337881
100.379,-3.29263764433563
100.38,-3.29978764057159
100.381,-3.30637278966606
100.382,-3.31175164319575
100.383,-3.31540079787374
100.384,-3.31704318523407
100.385,-3.31659987568855
100.386,-3.31411394290626
100.387,-3.30973975360394
100.388,-3.30372131429613
100.389,-3.29646002501249
100.39,-3.28836822882295
100.391,-3.2800396438688
100.392,-3.27215692959726
100.393,-3.26517038047314
100.394,-3.25937243178487
100.395,-3.25482711195946
100.396,-3.25154070742428
100.397,-3.2494175247848
100.398,-3.24831670150161
100.399,-3.24812438338995
100.4,-3.24868760071695
100.401,-3.24986642226577
100.402,-3.25153744779527
100.403,-3.25354235246778
100.404,-3.25573119334877
100.405,-3.25796566903591
100.406,-3.26008489355445
100.407,-3.26191307976842
100.408,-3.26329655945301
100.409,-3.26404813677073
100.41,-3.2639792189002
100.411,-3.2628474291414
100.412,-3.26042505912483
100.413,-3.25639941729605
100.414,-3.25045897625387
100.415,-3.24232643470168
100.416,-3.23189282789826
100.417,-3.21939843706787
100.418,-3.20566375739872
100.419,-3.19400685839355
100.42,-3.18491971120238
100.421,-3.17784212529659
100.422,-3.17277805879712
100.423,-3.1693410128355
100.424,-3.16706951707602
100.425,-3.16559942439198
100.426,-3.16480244509876
100.427,-3.16485692746937
100.428,-3.16649000160396
100.429,-3.17102088592947
100.43,-3.17914132028818
100.431,-3.18897143006325
100.432,-3.19905579090118
100.433,-3.2028928399086
100.434,-3.19849140942097
100.435,-3.18577443249524
100.436,-3.17233777604997
100.437,-3.16178589127958
100.438,-3.1566577963531
100.439,-3.15556325949728
100.44,-3.15880309790373
100.441,-3.16854775883257
100.442,-3.17982025444508
100.443,-3.18353553302586
100.444,-3.1727897003293
100.445,-3.15799517557025
100.446,-3.14983958378434
100.447,-3.14919790253043
100.448,-3.15693719312549
100.449,-3.16982041113079
100.45,-3.17059247754514
100.451,-3.15609131939709
100.452,-3.14445467665792
100.453,-3.14372126013041
100.454,-3.15457140095532
100.455,-3.16452491097152
100.456,-3.15359700471163
100.457,-3.13949328847229
100.458,-3.1391226220876
100.459,-3.15255927853286
100.46,-3.15563683398068
100.461,-3.13857314176857
100.462,-3.13318334519863
100.463,-3.14507773146033
100.464,-3.14994785003364
100.465,-3.13241104595363
100.466,-3.12994373962283
100.467,-3.14492196775973
100.468,-3.13740526326001
100.469,-3.12446057796478
100.47,-3.13486275263131
100.471,-3.13784671016037
100.472,-3.12111712992191
100.473,-3.12900100834668
100.474,-3.1335586681962
100.475,-3.11705586500466
100.476,-3.12781915999949
100.477,-3.12492903321981
100.478,-3.11359483748674
100.479,-3.12861101701856
100.48,-3.11278202570975
100.481,-3.11640463769436
100.482,-3.11890477314591
100.483,-3.10717290267348
100.484,-3.12078394927084
100.485,-3.10354446992278
100.486,-3.11649381183088
100.487,-3.1019898597151
100.488,-3.11079504899681
100.489,-3.10031161643565
100.49,-3.10648861341178
100.491,-3.09732160530984
100.492,-3.10414703562856
100.493,-3.09298257343471
100.494,-3.10324947349727
100.495,-3.08839045464993
100.496,-3.10130999423563
100.497,-3.08560114353895
100.498,-3.09375463984907
100.499,-3.0877161771059
100.5,-3.0823212582618
100.501,-3.09188105165958
100.502,-3.07783484458923
100.503,-3.08146607130766
100.504,-3.0844584107399
100.505,-3.07221664115787
100.506,-3.07635753415525
100.507,-3.07951308786869
100.508,-3.06800776161253
100.509,-3.06727481074631
100.51,-3.07393120601773
100.511,-3.06823500432074
100.512,-3.05994995869696
100.513,-3.06008034385741
100.514,-3.06487455964088
100.515,-3.06322169490159
100.516,-3.05554363876581
100.517,-3.05040390230715
100.518,-3.04942997172475
100.519,-3.05117783136666
100.52,-3.0527061317116
100.521,-3.05146910250187
100.522,-3.04775452241302
100.523,-3.04319872520864
100.524,-3.03904176689684
100.525,-3.0356019269675
100.526,-3.03275557234883
100.527,-3.03026917390525
100.528,-3.02800722420216
100.529,-3.02585051394999
100.53,-3.02385515533388
100.531,-3.02207306958735
100.532,-3.02068563178182
100.533,-3.01984301768243
100.534,-3.01938899792731
100.535,-3.01874149590731
100.536,-3.01686674356461
100.537,-3.01304808817804
100.538,-3.00788227468729
100.539,-3.00314207561314
100.54,-3.00016719847918
100.541,-2.99940980039537
100.542,-3.00026591867208
100.543,-3.00000282004476
100.544,-2.9961047694087
100.545,-2.99019436351955
100.546,-2.98563065007329
100.547,-2.98372260294855
100.548,-2.98410677351058
100.549,-2.98460805788636
100.55,-2.98233702778816
100.551,-2.97733955085278
100.552,-2.97207571566105
100.553,-2.96826660633087
100.554,-2.9660111758858
100.555,-2.9649140778929
100.556,-2.96432175673544
100.557,-2.96352012082934
100.558,-2.96210404485464
100.559,-2.96010845340788
100.56,-2.95780738815665
100.561,-2.95538222417235
100.562,-2.95293028466403
100.563,-2.95026926323771
100.564,-2.94697470963001
100.565,-2.94266385026276
100.566,-2.93761538341641
100.567,-2.9334002174437
100.568,-2.93186353519559
100.569,-2.9343746136874
100.57,-2.93486355803907
100.571,-2.9258371796459
100.572,-2.92226602323353
100.573,-2.92896782048047
100.574,-2.91878031566739
100.575,-2.91865528561175
100.576,-2.91882827877998
100.577,-2.91293277405202
100.578,-2.91309878230095
100.579,-2.91394162923098
100.58,-2.90368986316025
100.581,-2.91133881546557
100.582,-2.91134906001389
100.583,-2.89994687773287
100.584,-2.89518851786852
100.585,-2.89404415525496
100.586,-2.8935510199517
100.587,-2.89002945646644
100.588,-2.90029472671449
100.589,-2.93430266901851
100.59,-2.93118553236127
100.591,-2.88757472299039
100.592,-2.89482064545155
100.593,-2.9141295235604
100.594,-2.88303941488266
100.595,-2.89793126285076
100.596,-2.89621949195862
100.597,-2.87344912067056
100.598,-2.87867896258831
100.599,-2.88605224341154
100.6,-2.88634723983705
