Structure Acceleration, RAO-Based Response
Line A: Structure Acceleration, RAO-Based Response - Global Z (Trimaran - Center of Gravity relative to Origin of Fixed Reference Axes (FRA)) [mm/s²]

*Time (s),Line A (mm/s²)
100,-8.23602452874184
100.001,-8.23454186320305
100.002,-8.23303870856762
100.003,-8.23153462260962
100.004,-8.23002122342587
100.005,-8.22849571704865
100.006,-8.2269599661231
100.007,-8.22539441287518
100.008,-8.22383724153042
100.009,-8.22227075695992
100.01,-8.22069402784109
100.011,-8.2191051915288
100.012,-8.21750704199076
100.013,-8.21589771658182
100.014,-8.21426883339882
100.015,-8.21263808757067
100.016,-8.21099802851677
100.017,-8.20934679359198
100.018,-8.20768624544144
100.019,-8.20601452142
100.02,-8.20432137697935
100.021,-8.2026170566678
100.022,-8.20091459900141
100.023,-8.19919910281897
100.024,-8.19747615605593
100.025,-8.19572992622852
100.026,-8.19398462772369
100.027,-8.19223001599312
100.028,-8.19046515971422
100.029,-8.18868819624186
100.03,-8.18690191954374
100.031,-8.18510446697474
100.032,-8.18328373134136
100.033,-8.18146578967571
100.034,-8.17963760346174
100.035,-8.17778520286083
100.036,-8.17593559622765
100.037,-8.17406363785267
100.038,-8.17219261080027
100.039,-8.17031320184469
100.04,-8.16842261701822
100.041,-8.16651992499828
100.042,-8.1646079197526
100.043,-8.16268473863602
100.044,-8.16073920577765
100.045,-8.158796466887
100.046,-8.15684162080288
100.047,-8.15486442297697
100.048,-8.15289001911879
100.049,-8.15087743103504
100.05,-8.14888346940279
100.051,-8.14687553793192
100.052,-8.14486015588045
100.053,-8.14283359795809
100.054,-8.14079772680998
100.055,-8.13873670995235
100.056,-8.13667755573988
100.057,-8.13461001962423
100.058,-8.13253130763769
100.059,-8.13044235110283
100.06,-8.12834408134222
100.061,-8.12621973454952
100.062,-8.1240851432085
100.063,-8.12194216996431
100.064,-8.11980105936527
100.065,-8.11765063554049
100.066,-8.11548810452223
100.067,-8.11330135911703
100.068,-8.11111833900213
100.069,-8.10891389846802
100.07,-8.10671132057905
100.071,-8.10449756681919
100.072,-8.10227543115616
100.073,-8.10004025697708
100.074,-8.09777900576591
100.075,-8.09551123529673
100.076,-8.09324719011784
100.077,-8.09095613658428
100.078,-8.08867253363132
100.079,-8.08634515851736
100.08,-8.08404013514519
100.081,-8.08172393590212
100.082,-8.07939749211073
100.083,-8.07704590260983
100.084,-8.07469896972179
100.085,-8.07234086096287
100.086,-8.06994177401066
100.087,-8.06756410747766
100.088,-8.06517712771893
100.089,-8.06276127696037
100.09,-8.06035287678242
100.091,-8.05790349841118
100.092,-8.05545784533024
100.093,-8.05301778018475
100.094,-8.05055350065231
100.095,-8.04809387773275
100.096,-8.04561004042625
100.097,-8.04311502724886
100.098,-8.04060790687799
100.099,-8.03809147328138
100.1,-8.03558062762022
100.101,-8.03304463624954
100.102,-8.03051609545946
100.103,-8.02795961499214
100.104,-8.02537426352501
100.105,-8.02277866750956
100.106,-8.02021101117134
100.107,-8.01761262118816
100.108,-8.01500584930182
100.109,-8.01237020641565
100.11,-8.00974387675524
100.111,-8.00710916519165
100.112,-8.00446141511202
100.113,-8.00182297825813
100.114,-7.99915753304958
100.115,-7.99646321684122
100.116,-7.99375865608454
100.117,-7.9910634085536
100.118,-7.98835791647434
100.119,-7.98562541604042
100.12,-7.98289943486452
100.121,-7.98014923930168
100.122,-7.97738786786795
100.123,-7.97463580965996
100.124,-7.97187257558107
100.125,-7.96910468488932
100.126,-7.96630512923002
100.127,-7.96351302415133
100.128,-7.9606780782342
100.129,-7.95787386596203
100.13,-7.95503705739975
100.131,-7.95221235603094
100.132,-7.94934295117855
100.133,-7.94648192822933
100.134,-7.94361252337694
100.135,-7.94073659926653
100.136,-7.93786998838186
100.137,-7.93497636914253
100.138,-7.93207623064518
100.139,-7.92914815247059
100.14,-7.92623218148947
100.141,-7.92330969125032
100.142,-7.92040210217237
100.143,-7.91746750473976
100.144,-7.91452452540398
100.145,-7.91158061474562
100.146,-7.90856964886189
100.147,-7.90561269968748
100.148,-7.90265388786793
100.149,-7.89969135075808
100.15,-7.89672508835793
100.151,-7.89371877908707
100.152,-7.89075158536434
100.153,-7.88778159767389
100.154,-7.88479950278997
100.155,-7.88184069097042
100.156,-7.87886325269938
100.157,-7.87591468542814
100.158,-7.87293817847967
100.159,-7.8700166195631
100.16,-7.86706805229187
100.161,-7.86418560892344
100.162,-7.86130782216787
100.163,-7.85844400525093
100.164,-7.85565003752708
100.165,-7.85293336957693
100.166,-7.85026513040066
100.167,-7.84769095480442
100.168,-7.84523691982031
100.169,-7.84292723983526
100.17,-7.84084852784872
100.171,-7.8390697017312
100.172,-7.83770810812712
100.173,-7.83694628626108
100.174,-7.83713161945343
100.175,-7.83885363489389
100.176,-7.84327276051044
100.177,-7.85277225077152
100.178,-7.87297170609236
100.179,-7.92223773896694
100.18,-8.05388763546944
100.181,-8.23688879609108
100.182,-8.36989283561707
100.183,-8.42572003602982
100.184,-8.44703242182732
100.185,-8.45721922814846
100.186,-8.46203323453665
100.187,-8.46396759152412
100.188,-8.46417248249054
100.189,-8.46336875110865
100.19,-8.46185442060232
100.191,-8.45985021442175
100.192,-8.45747999846935
100.193,-8.45481362193823
100.194,-8.45196284353733
100.195,-8.44893790781498
100.196,-8.4458002820611
100.197,-8.44252202659845
100.198,-8.4391450509429
100.199,-8.43568239361048
100.2,-8.43213964253664
100.201,-8.42852983623743
100.202,-8.4248585626483
100.203,-8.42113234102726
100.204,-8.41737911105156
100.205,-8.41352622956038
100.206,-8.40967800468206
100.207,-8.40576179325581
100.208,-8.4018288180232
100.209,-8.39785765856504
100.21,-8.39382130652666
100.211,-8.38975235819817
100.212,-8.38566850870848
100.213,-8.38155578821898
100.214,-8.3773834630847
100.215,-8.37320741266012
100.216,-8.36897362023592
100.217,-8.36471375077963
100.218,-8.36045201867819
100.219,-8.35616607218981
100.22,-8.35185218602419
100.221,-8.34751967340708
100.222,-8.34316201508045
100.223,-8.33876058459282
100.224,-8.33436846733093
100.225,-8.32996051758528
100.226,-8.32553952932358
100.227,-8.32113716751337
100.228,-8.31670220941305
100.229,-8.31226259469986
100.23,-8.30777268856764
100.231,-8.30334518104792
100.232,-8.29892233014107
100.233,-8.29451438039541
100.234,-8.29012598842382
100.235,-8.28573573380709
100.236,-8.28142371028662
100.237,-8.27712006866932
100.238,-8.27285461127758
100.239,-8.26863013207912
100.24,-8.26445873826742
100.241,-8.26031155884266
100.242,-8.25625285506248
100.243,-8.25226120650768
100.244,-8.24831798672676
100.245,-8.2444790750742
100.246,-8.24072491377592
100.247,-8.23703687638044
100.248,-8.23347456753254
100.249,-8.23001284152269
100.25,-8.22666194289923
100.251,-8.22341907769442
100.252,-8.22029449045658
100.253,-8.21725372225046
100.254,-8.21435358375311
100.255,-8.21156240999699
100.256,-8.20887181907892
100.257,-8.20624269545078
100.258,-8.20371136069298
100.259,-8.20119678974152
100.26,-8.19871854037046
100.261,-8.19259323179722
100.262,-8.18580482155085
100.263,-8.17849021404982
100.264,-8.17056465893984
100.265,-8.16192291676998
100.266,-8.15254636108875
100.267,-8.14233534038067
100.268,-8.13127681612968
100.269,-8.11928883194923
100.27,-8.1064086407423
100.271,-8.09262786060572
100.272,-8.07818956673145
100.273,-8.06308817118406
100.274,-8.04754626005888
100.275,-8.0317035317421
100.276,-8.01073852926493
100.277,-7.9899113625288
100.278,-7.96958245337009
100.279,-7.94990174472332
100.28,-7.93103687465191
100.281,-7.91304465383291
100.282,-7.89607502520084
100.283,-7.88013730198145
100.284,-7.86537863314152
100.285,-7.85171706229448
100.286,-7.83932581543922
100.287,-7.82817229628563
100.288,-7.81832821667194
100.289,-7.80978566035628
100.29,-7.80264846980572
100.291,-7.79694132506847
100.292,-7.79276108369231
100.293,-7.79010867699981
100.294,-7.78913078829646
100.295,-7.78975943103433
100.296,-7.79214687645435
100.297,-7.79622839763761
100.298,-7.80198443681002
100.299,-7.80923292040825
100.3,-7.81785510480404
100.301,-7.82752875238657
100.302,-7.83789530396461
100.303,-7.8485943377018
100.304,-7.8590614721179
100.305,-7.86889344453812
100.306,-7.87763297557831
100.307,-7.88487121462822
100.308,-7.88801163434982
100.309,-7.88892526179552
100.31,-7.88836739957333
100.311,-7.88626633584499
100.312,-7.88248609751463
100.313,-7.87689443677664
100.314,-7.86954257637262
100.315,-7.86018278449774
100.316,-7.84866791218519
100.317,-7.83155765384436
100.318,-7.81027879565954
100.319,-7.78603227809072
100.32,-7.75940530002117
100.321,-7.73124396800995
100.322,-7.70273106172681
100.323,-7.67508987337351
100.324,-7.64951575547457
100.325,-7.62696983292699
100.326,-7.60828610509634
100.327,-7.59389717131853
100.328,-7.58415460586548
100.329,-7.57921766489744
100.33,-7.57919205352664
100.331,-7.5839408673346
100.332,-7.59323593229055
100.333,-7.60642485693097
100.334,-7.62242591008544
100.335,-7.63971079140902
100.336,-7.65652768313885
100.337,-7.67114898189902
100.338,-7.6821930706501
100.339,-7.68849859014153
100.34,-7.68941687420011
100.341,-7.6844347640872
100.342,-7.67323328182101
100.343,-7.65567366033792
100.344,-7.63205718249083
100.345,-7.60320201516151
100.346,-7.57100712507963
100.347,-7.53813376650214
100.348,-7.50754121690989
100.349,-7.48182460665703
100.35,-7.46296904981136
100.351,-7.45202368125319
100.352,-7.44939083233476
100.353,-7.45509006083012
100.354,-7.46827619150281
100.355,-7.48713267967105
100.356,-7.50881666317582
100.357,-7.52957444638014
100.358,-7.54589261487126
100.359,-7.55512062460184
100.36,-7.55559839308262
100.361,-7.54662929102778
100.362,-7.52822449430823
100.363,-7.50128924846649
100.364,-7.46821658685803
100.365,-7.43293249979615
100.366,-7.40014296025038
100.367,-7.3736160993576
100.368,-7.35599407926202
100.369,-7.34876468777657
100.37,-7.35194329172373
100.371,-7.36454548314214
100.372,-7.38388858735561
100.373,-7.40693183615804
100.374,-7.42950942367315
100.375,-7.44757335633039
100.376,-7.45834736153483
100.377,-7.46037811040878
100.378,-7.45323579758406
100.379,-7.43710668757558
100.38,-7.41318287327886
100.381,-7.38328555598855
100.382,-7.35044712200761
100.383,-7.31814187020063
100.384,-7.28915212675929
100.385,-7.26604321971536
100.386,-7.25013017654419
100.387,-7.24157691001892
100.388,-7.24010867998004
100.389,-7.24502606317401
100.39,-7.25545408204198
100.391,-7.27016991004348
100.392,-7.2871558368206
100.393,-7.30502977967262
100.394,-7.3222192004323
100.395,-7.33722513541579
100.396,-7.34918192028999
100.397,-7.35760107636452
100.398,-7.36250076442957
100.399,-7.36406166106462
100.4,-7.36263953149319
100.401,-7.35873868688941
100.402,-7.35284108668566
100.403,-7.34547898173332
100.404,-7.3372321203351
100.405,-7.32866767793894
100.406,-7.320293225348
100.407,-7.31279421597719
100.408,-7.3067881166935
100.409,-7.30294128879905
100.41,-7.30203790590167
100.411,-7.304891012609
100.412,-7.3121702298522
100.413,-7.32438405975699
100.414,-7.3415469378233
100.415,-7.36282812431455
100.416,-7.38104339689016
100.417,-7.39390216767788
100.418,-7.40407314151525
100.419,-7.41039495915174
100.42,-7.41246808320284
100.421,-7.41030182689428
100.422,-7.40394461899996
100.423,-7.39257177338004
100.424,-7.37434346228838
100.425,-7.34707107767463
100.426,-7.3108859360218
100.427,-7.26195471361279
100.428,-7.21982773393393
100.429,-7.20009626820683
100.43,-7.20812752842903
100.431,-7.2426488623023
100.432,-7.27670965716243
100.433,-7.29366252198815
100.434,-7.29277031496167
100.435,-7.27233523502946
100.436,-7.23084527999163
100.437,-7.16773280873895
100.438,-7.13441986590624
100.439,-7.15504121035337
100.44,-7.20240036025643
100.441,-7.22085405141115
100.442,-7.20619782805443
100.443,-7.15678930282593
100.444,-7.08810333162546
100.445,-7.08878599107265
100.446,-7.14338710531592
100.447,-7.15966569259763
100.448,-7.12670851498842
100.449,-7.04849464818835
100.45,-7.03572668135166
100.451,-7.09486473351717
100.452,-7.10174534469843
100.453,-7.0400252006948
100.454,-6.98057841509581
100.455,-7.03787058591843
100.456,-7.05465441569686
100.457,-6.98659243062139
100.458,-6.93947263062
100.459,-7.0050498470664
100.46,-6.99194334447384
100.461,-6.90004369243979
100.462,-6.94052781909704
100.463,-6.96167210116982
100.464,-6.86945486813784
100.465,-6.89131859689951
100.466,-6.91951066255569
100.467,-6.82276301085949
100.468,-6.86693005263805
100.469,-6.86467019841075
100.47,-6.7756618373096
100.471,-6.84536946937442
100.472,-6.76981639117002
100.473,-6.77613588050008
100.474,-6.78619556128979
100.475,-6.70611206442118
100.476,-6.76616420969367
100.477,-6.66577182710171
100.478,-6.73120422288775
100.479,-6.63738884031773
100.48,-6.6925878636539
100.481,-6.60550128668547
100.482,-6.65618060156703
100.483,-6.56593544408679
100.484,-6.62146182730794
100.485,-6.52391044422984
100.486,-6.58221729099751
100.487,-6.49492489174008
100.488,-6.52143312618136
100.489,-6.49162568151951
100.49,-6.43677264451981
100.491,-6.47851778194308
100.492,-6.39388617128134
100.493,-6.39691576361656
100.494,-6.40584621578455
100.495,-6.32242159917951
100.496,-6.32826471701264
100.497,-6.33743824437261
100.498,-6.26409705728292
100.499,-6.23393338173628
100.5,-6.25584227964282
100.501,-6.22682180255651
100.502,-6.15946529433131
100.503,-6.13008253276348
100.504,-6.13772869110107
100.505,-6.12857285887003
100.506,-6.08519371598959
100.507,-6.02954300120473
100.508,-5.98836969584227
100.509,-5.96698932349682
100.51,-5.95479039475322
100.511,-5.94009319320321
100.512,-5.91800408437848
100.513,-5.88898593559861
100.514,-5.85583411157131
100.515,-5.8211269788444
100.516,-5.78653439879417
100.517,-5.752875469625
100.518,-5.72044588625431
100.519,-5.68874925374985
100.52,-5.6565566919744
100.521,-5.62160043045878
100.522,-5.58095471933484
100.523,-5.5323108099401
100.524,-5.47710154205561
100.525,-5.4245418868959
100.526,-5.38794603198767
100.527,-5.3707966580987
100.528,-5.35227637737989
100.529,-5.30340895056725
100.53,-5.23027637973428
100.531,-5.18536008894444
100.532,-5.17758680507541
100.533,-5.13262674212456
100.534,-5.05111552774906
100.535,-5.02735329791903
100.536,-5.00397803261876
100.537,-4.91733010858297
100.538,-4.88960510119796
100.539,-4.86077181994915
100.54,-4.77263703942299
100.541,-4.7597847878933
100.542,-4.70250472426414
100.543,-4.63302154093981
100.544,-4.62298979982734
100.545,-4.53543476760387
100.546,-4.50720032677054
100.547,-4.46318136528134
100.548,-4.38436679542065
100.549,-4.37375903129578
100.55,-4.29440755397081
100.551,-4.24981350079179
100.552,-4.22328105196357
100.553,-4.13805339485407
100.554,-4.11156425252557
100.555,-4.07276023179293
100.556,-3.99223016574979
100.557,-3.96219966933131
100.558,-3.93266696482897
100.559,-3.86062869802117
100.56,-3.80415469408035
100.561,-3.78012517467141
100.562,-3.74784087762237
100.563,-3.69307002983987
100.564,-3.63302580080926
100.565,-3.58235253952444
100.566,-3.54145327582955
100.567,-3.50465904921293
100.568,-3.46761057153344
100.569,-3.428696654737
100.57,-3.38799459859729
100.571,-3.34843550808728
100.572,-3.31765506416559
100.573,-3.30353947356343
100.574,-3.29351704567671
100.575,-3.24878422543406
100.576,-3.1870873644948
100.577,-3.19920713081956
100.578,-3.16695822402835
100.579,-3.12306638807058
100.58,-3.13468743115664
100.581,-3.08882584795356
100.582,-3.07326554320753
100.583,-3.09366593137383
100.584,-3.04505717940629
100.585,-3.01211141049862
100.586,-3.02139366976917
100.587,-3.03767481818795
100.588,-3.03334603086114
100.589,-2.97565432265401
100.59,-2.86687933839858
100.591,-2.84121418371797
100.592,-2.96716601587832
100.593,-2.94117769226432
100.594,-2.90686869993806
100.595,-2.96061811968684
100.596,-3.00963059999049
100.597,-2.92910821735859
100.598,-2.98497639596462
100.599,-3.05445189587772
100.6,-3.09448735788465
