Structure Acceleration, RAO-Based Response
Line A: Structure Acceleration, RAO-Based Response - Global Z (Trimaran - Center of Gravity relative to Origin of Fixed Reference Axes (FRA)) [mm/s²]

*Time (s),Line A (mm/s²)
99.7,-21.1877599358559
99.701,-21.2051216512918
99.702,-21.2225504219532
99.703,-21.2397612631321
99.70399,-21.2570372968912
99.70499,-21.2740991264582
99.70599,-21.291222423315
99.707,-21.3082693517208
99.708,-21.3251039385796
99.709,-21.3419999927282
99.71,-21.358685567975
99.711,-21.3755629956722
99.712,-21.3920958340168
99.713,-21.4086882770061
99.714,-21.4250646531582
99.715,-21.4415043592453
99.716,-21.457863971591
99.717,-21.4741509407759
99.71799,-21.4902255684137
99.71899,-21.5064864605665
99.71999,-21.522406488657
99.721,-21.5383898466825
99.722,-21.5542856603861
99.723,-21.5701069682837
99.724,-21.5858519077301
99.725,-21.6015186160803
99.726,-21.6171108186245
99.727,-21.6324962675571
99.728,-21.648058667779
99.729,-21.6632932424545
99.73,-21.6786935925484
99.731,-21.6937735676765
99.73199,-21.7090230435133
99.73299,-21.7239484190941
99.73399,-21.7389184981585
99.735,-21.753927692771
99.736,-21.7687375843525
99.737,-21.7835921794176
99.738,-21.7981301248074
99.739,-21.8128301203251
99.74,-21.8272116035223
99.741,-21.8417551368475
99.742,-21.8560975044966
99.743,-21.8703635036945
99.744,-21.8845494091511
99.745,-21.8986608088017
99.74599,-21.9126921147108
99.74699,-21.9266451895237
99.74799,-21.940628066659
99.749,-21.9545364379883
99.75,-21.9682529568672
99.751,-21.9818856567144
99.752,-21.9955518841743
99.753,-22.009028121829
99.754,-22.0225397497416
99.755,-22.0358576625586
99.756,-22.0492035150528
99.757,-22.0622606575489
99.758,-22.0753476023674
99.759,-22.0884531736374
99.75999,-22.1013817936182
99.76099,-22.1143271774054
99.76199,-22.127091884613
99.763,-22.1399795264006
99.764,-22.152591496706
99.765,-22.1652146428823
99.766,-22.1776627004147
99.767,-22.190123796463
99.768,-22.2024153918028
99.769,-22.2147218883038
99.77,-22.2268458455801
99.771,-22.2389902919531
99.772,-22.2510546445847
99.77299,-22.2629401832819
99.77399,-22.2748406231403
99.77499,-22.286569699645
99.77599,-22.2983099520206
99.777,-22.3100613802671
99.778,-22.3216377198696
99.779,-22.3330445587635
99.78,-22.3444551229477
99.781,-22.3557930439711
99.782,-22.367050871253
99.783,-22.3781280219555
99.784,-22.3892163485289
99.785,-22.4002283066511
99.786,-22.4110707640648
99.78699,-22.4220063537359
99.78799,-22.4326830357313
99.78899,-22.443363443017
99.78999,-22.4539637565613
99.791,-22.464569658041
99.792,-22.4750079214573
99.793,-22.485364228487
99.794,-22.4956385791302
99.795,-22.5057527422905
99.796,-22.5159414112568
99.797,-22.5258879363537
99.798,-22.535914555192
99.799,-22.5457046180964
99.8,-22.5555617362261
99.80099,-22.5652642548084
99.80199,-22.5748792290688
99.80299,-22.584417834878
99.80399,-22.5938744843006
99.805,-22.6033199578524
99.806,-22.6126816123724
99.807,-22.6218178868294
99.808,-22.6309411227703
99.809,-22.6400569081306
99.81,-22.6490143686533
99.811,-22.6578917354345
99.812,-22.6666834205389
99.813,-22.6754676550627
99.814,-22.6840935647488
99.81499,-22.6927101612091
99.81599,-22.7011032402515
99.81699,-22.7095521986485
99.81799,-22.717846557498
99.819,-22.7261912077665
99.82,-22.7343272417784
99.821,-22.7423738688231
99.822,-22.7504000067711
99.823,-22.7582808583975
99.824,-22.7661449462175
99.825,-22.7738544344902
99.826,-22.7815471589565
99.827,-22.789103910327
99.828,-22.7966252714396
99.82899,-22.8040106594563
99.82999,-22.8113662451506
99.83099,-22.8185802698135
99.832,-22.8258315473795
99.833,-22.8328742086887
99.834,-22.8398982435465
99.835,-22.8468347340822
99.836,-22.8536296635866
99.837,-22.8604022413492
99.838,-22.8670258074999
99.839,-22.8736270219088
99.84,-22.8801444172859
99.841,-22.8865742683411
99.842,-22.8928662836552
99.84299,-22.8991843760014
99.84399,-22.905308753252
99.84499,-22.91139960289
99.846,-22.9174550622702
99.847,-22.9233354330063
99.848,-22.9291692376137
99.849,-22.9349210858345
99.85,-22.9405909776688
99.851,-22.9461770504713
99.852,-22.951677441597
99.853,-22.9570455849171
99.854,-22.9624193161726
99.855,-22.9676198214293
99.856,-22.9728259146214
99.85699,-22.9778941720724
99.85799,-22.9828897863626
99.85899,-22.9877922683954
99.86,-22.9926165193319
99.861,-22.997384890914
99.862,-23.0020023882389
99.863,-23.0065975338221
99.864,-23.0110790580511
99.865,-23.0154749006033
99.866,-23.0197813361883
99.867,-23.0240393429995
99.868,-23.0281762778759
99.869,-23.0322331190109
99.87,-23.0361968278885
99.87099,-23.0401121079922
99.87199,-23.0439081788063
99.87299,-23.0476204305887
99.874,-23.0512712150812
99.875,-23.0548139661551
99.876,-23.058295249939
99.877,-23.0616666376591
99.878,-23.0649746954441
99.879,-23.0681709945202
99.88,-23.0713151395321
99.881,-23.0743456631899
99.882,-23.0773016810417
99.883,-23.0801627039909
99.884,-23.0829287320375
99.88499,-23.0856388807297
99.88599,-23.0882372707129
99.88699,-23.0907667428255
99.888,-23.0932161211967
99.889,-23.0955667793751
99.89,-23.0978280305862
99.891,-23.100022226572
99.892,-23.1021121144295
99.893,-23.1041312217712
99.894,-23.1060441583395
99.895,-23.1078863143921
99.896,-23.1096390634775
99.897,-23.1112893670797
99.89799,-23.1128744781017
99.89899,-23.1143590062857
99.89999,-23.1157764792442
99.90099,-23.1170877814293
99.902,-23.1183301657438
99.903,-23.1194794178009
99.904,-23.1205374002457
99.905,-23.121515288949
99.906,-23.12240190804
99.907,-23.1231935322285
99.908,-23.1239087879658
99.909,-23.1245327740908
99.91,-23.1250692158937
99.911,-23.1255255639553
99.91199,-23.1258925050497
99.91299,-23.1261663138866
99.91399,-23.1263600289822
99.91499,-23.1264717876911
99.916,-23.126482963562
99.917,-23.1264140456915
99.918,-23.126257583499
99.919,-23.1260173022747
99.92,-23.125683888793
99.921,-23.1252685189247
99.922,-23.1247618794441
99.923,-23.1241714209318
99.924,-23.1234952807426
99.925,-23.1227297335863
99.92599,-23.1218710541725
99.92699,-23.1209304183722
99.92799,-23.1198985129595
99.92899,-23.1187827885151
99.93,-23.1175683438778
99.931,-23.1162775307894
99.932,-23.1148973107338
99.933,-23.1134295463562
99.934,-23.1118816882372
99.935,-23.1102295219898
99.936,-23.1085103005171
99.937,-23.1066811829805
99.938,-23.1047812849283
99.939,-23.1027845293283
99.93999,-23.100707679987
99.94099,-23.0985395610332
99.94199,-23.0962764471769
99.94299,-23.0939220637083
99.944,-23.091483861208
99.945,-23.0889525264502
99.946,-23.0863336473703
99.947,-23.0836514383554
99.948,-23.080863058567
99.949,-23.0779852718115
99.95,-23.0750143527985
99.951,-23.0719801038504
99.952,-23.0688117444515
99.953,-23.0656079947948
99.95399,-23.0622608214617
99.95499,-23.0588857084513
99.95599,-23.0553578585386
99.957,-23.0517461895943
99.958,-23.0480786412954
99.959,-23.0443142354488
99.96,-23.0404697358608
99.961,-23.0365358293056
99.962,-23.0325069278479
99.963,-23.0283681303263
99.964,-23.0242032557726
99.965,-23.0198781937361
99.966,-23.0154991149902
99.967,-23.0110045522451
99.96799,-23.0064522475004
99.96899,-23.001778870821
99.96999,-22.9970496147871
99.971,-22.9921583086252
99.972,-22.987250238657
99.973,-22.9822602123022
99.974,-22.9771416634321
99.975,-22.9719709604979
99.976,-22.9666773229837
99.977,-22.9613296687603
99.978,-22.9558050632477
99.979,-22.950291633606
99.98,-22.9446403682232
99.981,-22.9389443993568
99.98199,-22.933067753911
99.98299,-22.9272022843361
99.98399,-22.9211878031492
99.985,-22.9150447994471
99.986,-22.9089111089706
99.987,-22.902587428689
99.988,-22.8962786495686
99.989,-22.8897742927074
99.99,-22.8832308202982
99.991,-22.8766035288572
99.992,-22.8698831051588
99.993,-22.8630267083645
99.994,-22.8561870753765
99.995,-22.849153727293
99.99599,-22.8420775383711
99.99699,-22.8348653763533
99.99799,-22.827610373497
99.999,-22.8202734142542
100,-22.8127893060446
100.001,-22.8052716702223
100.002,-22.7976068854332
100.003,-22.7899197489023
100.004,-22.7820184081793
100.005,-22.7741450071335
100.006,-22.7661207318306
100.007,-22.7580741047859
100.008,-22.7498803287745
100.009,-22.74164929986
100.00999,-22.7332096546888
100.01099,-22.7248072624207
100.01199,-22.7162521332502
100.013,-22.7075442671776
100.014,-22.6988736540079
100.015,-22.6899813860655
100.016,-22.6811319589615
100.017,-22.672064602375
100.018,-22.6629674434662
100.019,-22.6537846028805
100.02,-22.6445123553276
100.021,-22.6350836455822
100.022,-22.6257052272558
100.02299,-22.6160958409309
100.02399,-22.6064678281546
100.02499,-22.5967466831207
100.02599,-22.5868690758944
100.027,-22.5768983364105
100.028,-22.5668381899595
100.029,-22.5567668676376
100.03,-22.5465204566717
100.031,-22.5362684577703
100.032,-22.5258525460958
100.033,-22.515419870615
100.034,-22.5048195570707
100.035,-22.4941298365593
100.036,-22.4834363907576
100.03699,-22.4725678563118
100.03799,-22.461611777544
100.03899,-22.4505625665188
100.03999,-22.4395096302032
100.041,-22.4281065165997
100.042,-22.4168840795755
100.043,-22.4053896963596
100.044,-22.3938915878534
100.045,-22.3823077976704
100.046,-22.370632737875
100.047,-22.358775138855
100.048,-22.347018122673
100.049,-22.335072979331
100.05,-22.3229452967644
100.05099,-22.3108250647783
100.05199,-22.2985185682774
100.05299,-22.2862213850021
100.05399,-22.2737397998571
100.055,-22.2611632198095
100.056,-22.2485009580851
100.057,-22.2358386963606
100.058,-22.2229957580566
100.059,-22.2100596874952
100.06,-22.197037935257
100.061,-22.1840217709541
100.062,-22.1709161996841
100.063,-22.1575256437063
100.064,-22.1442431211472
100.06499,-22.1306700259447
100.06599,-22.1172124147415
100.06699,-22.103451192379
100.06799,-22.0898129045963
100.069,-22.0757722854614
100.07,-22.0618452876806
100.071,-22.0478363335133
100.072,-22.0337361097336
100.073,-22.0194328576326
100.074,-22.0051575452089
100.075,-21.990891546011
100.076,-21.9763237982988
100.077,-21.9617784023285
100.078,-21.9470262527466
100.07899,-21.9323039054871
100.07999,-21.9173766672611
100.08099,-21.9023581594229
100.082,-21.8871384859085
100.083,-21.87205478549
100.084,-21.8567661941051
100.085,-21.8414999544621
100.086,-21.826034411788
100.087,-21.8104757368565
100.088,-21.7949468642473
100.089,-21.7790938913822
100.09,-21.7633862048388
100.091,-21.7473525553942
100.092,-21.7313468456268
100.09299,-21.7152517288923
100.09399,-21.699070930481
100.09499,-21.6827914118767
100.096,-21.6663088649511
100.097,-21.649731323123
100.098,-21.6331873089075
100.099,-21.6165576130152
100.1,-21.5997081249952
100.101,-21.5829014778137
100.102,-21.5658731758595
100.103,-21.5488877147436
100.104,-21.5316843241453
100.105,-21.5145125985146
100.106,-21.4971341192722
100.10699,-21.4797891676426
100.10799,-21.4622318744659
100.10899,-21.4445721358061
100.11,-21.4266963303089
100.111,-21.4089956134558
100.112,-21.3910732418299
100.113,-21.3730689138174
100.114,-21.354965865612
100.115,-21.3367789983749
100.116,-21.3184989988804
100.117,-21.2999936193228
100.118,-21.2816689163446
100.119,-21.2629921734333
100.12,-21.2443564087152
100.12099,-21.2256293743849
100.12199,-21.2068185210228
100.12299,-21.1877785623074
100.124,-21.1686473339796
100.125,-21.1495719850063
100.126,-21.1302600800991
100.127,-21.1110040545464
100.128,-21.0915114730597
100.129,-21.0720803588629
100.13,-21.0522711277008
100.131,-21.0326611995697
100.132,-21.0128147155046
100.133,-20.9930259734392
100.134,-20.9728516638279
100.13499,-20.9528896957636
100.13599,-20.9325365722179
100.13699,-20.9123976528645
100.138,-20.8918713033199
100.139,-20.8714008331299
100.14,-20.8508502691984
100.141,-20.830200985074
100.142,-20.8094716072083
100.143,-20.7884963601828
100.144,-20.76774276793
100.145,-20.7465887069702
100.146,-20.7255054265261
100.147,-20.7041725516319
100.14799,-20.6829160451889
100.14899,-20.6614006310701
100.14999,-20.6399671733379
100.15099,-20.6184461712837
100.152,-20.5965079367161
100.153,-20.5748081207275
100.154,-20.5526929348707
100.155,-20.5308180302382
100.156,-20.5086898058653
100.157,-20.4866398125887
100.158,-20.4641744494438
100.159,-20.4419456422329
100.16,-20.4193014651537
100.161,-20.3969031572342
100.16199,-20.3740820288658
100.16299,-20.3515086323023
100.16399,-20.3286781907082
100.16499,-20.3057639300823
100.166,-20.2825888991356
100.167,-20.2593263238668
100.168,-20.2361475676298
100.169,-20.2127080410719
100.17,-20.1895274221897
100.171,-20.1659146696329
100.172,-20.1423820108175
100.173,-20.1185941696167
100.174,-20.094895735383
100.175,-20.0711097568274
100.17599,-20.0468823313713
100.17699,-20.0229194015265
100.17799,-19.9986975640059
100.17899,-19.974559545517
100.18,-19.9498012661934
100.181,-19.9254918843508
100.182,-19.900918006897
100.183,-19.8762584477663
100.184,-19.8515113443136
100.185,-19.8266822844744
100.186,-19.8017582297325
100.187,-19.7767466306686
100.188,-19.7518430650234
100.189,-19.7264831513166
100.18999,-19.7012163698673
100.19099,-19.675686955452
100.19199,-19.6504294872284
100.19299,-19.6247231215239
100.194,-19.5989236235619
100.195,-19.5730421692133
100.196,-19.5472594350576
100.197,-19.521202892065
100.198,-19.495252519846
100.199,-19.4690246134996
100.2,-19.4428954273462
100.201,-19.4166917353868
100.202,-19.3900149315596
100.203,-19.3636361509562
100.20399,-19.3369742482901
100.20499,-19.3102359771729
100.20599,-19.2834064364433
100.207,-19.2564968019724
100.208,-19.2292984575033
100.209,-19.2024074494839
100.21,-19.1750433295965
100.211,-19.1477872431278
100.212,-19.1204492002726
100.213,-19.0930273383856
100.214,-19.0655179321766
100.215,-19.0379284322262
100.216,-19.0102513879538
100.217,-18.9822893589735
100.21799,-18.9544465392828
100.21899,-18.9263094216585
100.21999,-18.8982971012592
100.221,-18.8697949051857
100.222,-18.8416112214327
100.223,-18.8131388276815
100.224,-18.7847893685102
100.225,-18.7563542276621
100.226,-18.7274254858494
100.227,-18.6988282948732
100.228,-18.6699368059635
100.229,-18.6411663889885
100.23,-18.6119060963392
100.231,-18.5829717665911
100.23199,-18.5535363852978
100.23299,-18.5244362801313
100.23399,-18.4948388487101
100.235,-18.4653587639332
100.236,-18.4355936944485
100.237,-18.4059534221888
100.238,-18.3764398097992
100.239,-18.3464270085096
100.24,-18.3165352791548
100.241,-18.2863473892212
100.242,-18.2562936097383
100.243,-18.2259418070316
100.244,-18.1957222521305
100.245,-18.1652028113604
100.24599,-18.1348267942667
100.24699,-18.1041415780783
100.24799,-18.0735923349857
100.249,-18.042529001832
100.25,-18.0118232965469
100.251,-17.9810300469398
100.252,-17.9497171193361
100.253,-17.9187674075365
100.254,-17.8875029087067
100.255,-17.8561732172966
100.256,-17.8247522562742
100.257,-17.7932530641556
100.258,-17.7616737782955
100.259,-17.7300125360489
100.25999,-17.6980458199978
100.26099,-17.6664516329765
100.26199,-17.634317278862
100.263,-17.6021046936512
100.264,-17.5702665001154
100.265,-17.5378955900669
100.266,-17.5056718289852
100.267,-17.4731370061636
100.268,-17.4407511949539
100.269,-17.4080543220043
100.27,-17.3755157738924
100.271,-17.3426643013954
100.272,-17.3099618405104
100.27299,-17.2769445925951
100.27399,-17.2440875321627
100.27499,-17.2106828540564
100.27599,-17.1776711940765
100.277,-17.1443354338408
100.278,-17.1106904745102
100.279,-17.0774403959513
100.28,-17.0438699424267
100.281,-17.0102193951607
100.282,-16.9764999300241
100.283,-16.9426947832108
100.284,-16.908572986722
100.285,-16.8748535215855
100.286,-16.8405771255493
100.28699,-16.8064590543509
100.28799,-16.7722702026367
100.28899,-16.7380049824715
100.28999,-16.7036578059196
100.291,-16.6687425225973
100.292,-16.6342444717884
100.293,-16.5994130074978
100.294,-16.5647603571415
100.295,-16.5297798812389
100.296,-16.4949763566256
100.297,-16.4598468691111
100.298,-16.4248887449503
100.299,-16.3896046578884
100.3,-16.3544900715351
