Structure Acceleration, RAO-Based Response
Line A: Structure Acceleration, RAO-Based Response - Global Z (Trimaran - Center of Gravity relative to Origin of Fixed Reference Axes (FRA)) [mm/s²]
,
*Time (s),Line A (mm/s?
99.9,-0.864175498
99.901,-0.86442125
99.902,-0.864667236
99.903,-0.864920265
99.904,-0.865151989
99.905,-0.865397044
99.906,-0.865633425
99.90701,-0.865874928
99.908,-0.866107177
99.909,-0.866350078
99.91,-0.866573537
99.911,-0.866815564
99.912,-0.867038907
99.913,-0.86727232
99.914,-0.867492054
99.915,-0.867713534
99.916,-0.867938041
99.917,-0.868156902
99.918,-0.86838787
99.919,-0.868596311
99.92,-0.868821284
99.92101,-0.869031297
99.922,-0.869245559
99.923,-0.869460579
99.924,-0.869676296
99.925,-0.869873562
99.926,-0.870086253
99.927,-0.870296324
99.928,-0.870500051
99.929,-0.870697724
99.93,-0.870895281
99.931,-0.871094759
99.932,-0.871289172
99.933,-0.871492957
99.934,-0.871675729
99.93501,-0.871881901
99.936,-0.872069737
99.937,-0.872257689
99.938,-0.872442324
99.939,-0.872632838
99.94,-0.872814795
99.941,-0.873003213
99.942,-0.873179059
99.943,-0.873362413
99.944,-0.873547629
99.945,-0.873714976
99.946,-0.873895187
99.947,-0.87405555
99.948,-0.874237856
99.94901,-0.874408521
99.95,-0.874576741
99.951,-0.874737219
99.952,-0.874907768
99.953,-0.875068305
99.954,-0.875238387
99.955,-0.875393627
99.956,-0.875555095
99.957,-0.875707075
99.958,-0.875867379
99.959,-0.876016566
99.96,-0.876165519
99.961,-0.876324659
99.962,-0.876467733
99.96301,-0.8766182
99.964,-0.876769191
99.965,-0.876907492
99.966,-0.877050916
99.967,-0.877193175
99.968,-0.877332233
99.969,-0.877470709
99.97,-0.877605518
99.971,-0.877742888
99.972,-0.877871993
99.973,-0.878011051
99.974,-0.878135907
99.975,-0.878259074
99.976,-0.878386782
99.97701,-0.878517341
99.978,-0.878641731
99.979,-0.878767285
99.98,-0.87887916
99.981,-0.878992374
99.982,-0.879119267
99.983,-0.879226078
99.984,-0.879344705
99.985,-0.879450992
99.986,-0.879567291
99.987,-0.87967224
99.988,-0.8797911
99.989,-0.879886153
99.99,-0.879985339
99.991,-0.88008988
99.992,-0.880195876
99.993,-0.880290463
99.994,-0.88039547
99.995,-0.88048575
99.996,-0.880579872
99.997,-0.880672596
99.998,-0.880760432
99.999,-0.880855834
100,-0.880938256
100.001,-0.881028711
100.002,-0.881107757
100.003,-0.88119955
100.004,-0.881273125
100.005,-0.881359098
100.006,-0.881433196
100.007,-0.881512475
100.008,-0.881577609
100.009,-0.88166038
100.01,-0.881726563
100.011,-0.881793676
100.012,-0.881865504
100.013,-0.881928136
100.014,-0.881997636
100.015,-0.882059685
100.016,-0.882128195
100.017,-0.882179127
100.018,-0.882247405
100.019,-0.882291002
100.02,-0.882359745
100.021,-0.882408815
100.022,-0.882464112
100.023,-0.882511784
100.024,-0.882564345
100.025,-0.882607361
100.026,-0.882646709
100.027,-0.882698107
100.028,-0.882733962
100.029,-0.882778666
100.03,-0.882816385
100.031,-0.882858469
100.03201,-0.882890017
100.033,-0.882929075
100.034,-0.882956025
100.035,-0.882988388
100.036,-0.883017667
100.037,-0.883048226
100.038,-0.883071509
100.039,-0.883101078
100.04,-0.883124245
100.041,-0.883136934
100.042,-0.883162371
100.043,-0.883176632
100.044,-0.883198692
100.045,-0.883208239
100.04601,-0.883224478
100.047,-0.883230066
100.048,-0.883251312
100.049,-0.883251603
100.05,-0.883260393
100.051,-0.883263419
100.052,-0.883271277
100.053,-0.883266272
100.054,-0.883270754
100.055,-0.88326371
100.056,-0.883261033
100.057,-0.883258821
100.058,-0.88324945
100.059,-0.883247936
100.06001,-0.883237342
100.061,-0.883221452
100.062,-0.883199682
100.063,-0.883189787
100.064,-0.883178669
100.065,-0.883160741
100.066,-0.8831413
100.067,-0.883122208
100.068,-0.883095548
100.069,-0.883074128
100.07,-0.883042405
100.071,-0.883018773
100.072,-0.882980879
100.073,-0.882947235
100.07401,-0.882916735
100.075,-0.882886874
100.076,-0.882844673
100.077,-0.882802298
100.078,-0.88276749
100.079,-0.88271749
100.08,-0.882680935
100.081,-0.882632856
100.082,-0.8825892
100.083,-0.882529945
100.084,-0.882487046
100.085,-0.882420223
100.086,-0.88236772
100.087,-0.88229106
100.08801,-0.882218941
100.089,-0.882151944
100.09,-0.882089662
100.091,-0.882024819
100.092,-0.881951943
100.093,-0.881893677
100.094,-0.881823129
100.095,-0.881767482
100.096,-0.881697284
100.097,-0.881640532
100.098,-0.881569285
100.099,-0.881511194
100.1,-0.88143663
100.101,-0.881376211
100.10201,-0.881295884
100.103,-0.881222368
100.104,-0.881142158
100.105,-0.881061598
100.106,-0.880976382
100.107,-0.880889012
100.108,-0.880808104
100.109,-0.88072347
100.11,-0.880643725
100.111,-0.880555774
100.112,-0.880477834
100.113,-0.880393549
100.114,-0.88031363
100.115,-0.880226668
100.116,-0.880136387
100.117,-0.880034408
100.118,-0.879937026
100.119,-0.879828061
100.12,-0.879713683
100.121,-0.879583473
100.122,-0.879455474
100.123,-0.879309024
100.124,-0.87916787
100.125,-0.879034866
100.126,-0.878901861
100.127,-0.878783874
100.128,-0.87866775
100.129,-0.878567458
100.13,-0.87846216
100.131,-0.8783823
100.132,-0.878303545
100.133,-0.878227351
100.134,-0.878123275
100.135,-0.878010644
100.136,-0.8778802
100.137,-0.877735089
100.138,-0.87755773
100.139,-0.877364131
100.14,-0.877166633
100.141,-0.876969541
100.142,-0.876795733
100.143,-0.876624428
100.144,-0.876476581
100.145,-0.876333273
100.146,-0.876214239
100.147,-0.87609567
100.148,-0.876002945
100.149,-0.875905971
100.15,-0.875831582
100.151,-0.875736412
100.152,-0.875555968
100.153,-0.875368016
100.154,-0.875192636
100.155,-0.87504345
100.156,-0.874897931
100.15701,-0.874763122
100.158,-0.874607707
100.159,-0.874379068
100.16,-0.874148856
100.161,-0.873910671
100.162,-0.873650075
100.163,-0.873418932
100.164,-0.873179815
100.165,-0.87296532
100.166,-0.872739183
100.167,-0.872527657
100.168,-0.872308039
100.169,-0.872099481
100.17,-0.871888828
100.17101,-0.871687545
100.172,-0.871472352
100.173,-0.871272059
100.174,-0.871069613
100.175,-0.870857039
100.176,-0.87066181
100.177,-0.870452728
100.178,-0.87025814
100.179,-0.870053365
100.18,-0.869857322
100.181,-0.869655458
100.182,-0.869451615
100.183,-0.8692501
100.184,-0.869038166
100.18501,-0.868843694
100.186,-0.868638337
100.187,-0.868427567
100.188,-0.868222909
100.189,-0.868010859
100.19,-0.867792289
100.191,-0.86758926
100.192,-0.867368071
100.193,-0.867165276
100.194,-0.86694269
100.195,-0.866731047
100.196,-0.866508868
100.197,-0.866296352
100.198,-0.866070332
100.19901,-0.865855138
100.2,-0.865625974
100.201,-0.865409733
100.202,-0.865190406
100.203,-0.864970789
100.204,-0.864746922
100.205,-0.864524161
100.206,-0.864308618
100.207,-0.864083122
100.208,-0.863870431
100.209,-0.863646972
100.21,-0.86343498
100.211,-0.863228284
100.212,-0.863021181
100.21301,-0.862809073
100.214,-0.862610526
100.215,-0.862411456
100.216,-0.86222135
100.217,-0.862029498
100.218,-0.861848996
100.219,-0.861669367
100.22,-0.8614338
100.221,-0.861088862
100.222,-0.860734319
100.223,-0.860382745
100.224,-0.860026048
100.225,-0.85969147
100.226,-0.859366264
100.22701,-0.859085179
100.228,-0.858832442
100.229,-0.858600775
100.23,-0.85835834
100.231,-0.858126208
100.232,-0.857879349
100.233,-0.857634877
100.234,-0.857376668
100.235,-0.857115665
100.236,-0.856848143
100.237,-0.856567116
100.238,-0.8562812
100.239,-0.855984865
100.24,-0.85568236
100.241,-0.85535075
100.242,-0.855029328
100.243,-0.854684506
100.244,-0.854349521
100.245,-0.853986014
100.246,-0.853627687
100.247,-0.85324503
100.248,-0.8528693
100.249,-0.852475525
100.25,-0.852085126
100.251,-0.851695891
100.252,-0.851286866
100.253,-0.850892393
100.254,-0.850487326
100.255,-0.850082433
100.256,-0.849688891
100.257,-0.849296048
100.258,-0.848910946
100.259,-0.848550291
100.26,-0.848211173
100.261,-0.847898074
100.262,-0.847608026
100.263,-0.847354124
100.264,-0.847112737
100.265,-0.84690738
100.266,-0.846757786
100.267,-0.846644107
100.26801,-0.846593932
100.269,-0.846603536
100.27,-0.846629729
100.271,-0.846063602
100.272,-0.84544305
100.273,-0.844850321
100.274,-0.844309339
100.275,-0.843803224
100.276,-0.843337271
100.277,-0.842882495
100.278,-0.842462177
100.279,-0.842051231
100.28,-0.841650588
100.281,-0.841281493
100.28201,-0.840912689
100.283,-0.840551977
100.284,-0.840207853
100.285,-0.839863147
100.286,-0.839522865
100.287,-0.839202723
100.288,-0.838874199
100.289,-0.838558772
100.29,-0.838237524
100.291,-0.837925356
100.292,-0.83760306
100.293,-0.837298285
100.294,-0.83697692
100.295,-0.836652878
100.29601,-0.836338848
100.297,-0.836019579
100.298,-0.835683255
100.299,-0.835360552
100.3,-0.835007115
100.301,-0.834659615
100.302,-0.834305712
100.303,-0.833929458
100.304,-0.83354552
100.305,-0.833144994
100.306,-0.832724909
100.307,-0.832278864
100.308,-0.83181489
100.309,-0.831318088
100.31001,-0.830793346
100.311,-0.83023624
100.312,-0.829646422
100.313,-0.829025405
100.314,-0.828411954
100.315,-0.827805314
100.316,-0.827297685
100.317,-0.827017473
100.318,-0.827093842
100.319,-0.827174983
100.32,-0.82490372
100.321,-0.823021808
100.322,-0.82148076
100.323,-0.820249028
100.32401,-0.819255074
100.325,-0.818494242
100.326,-0.817947905
100.327,-0.817601918
100.328,-0.817451102
100.329,-0.817525201
100.33,-0.81783894
100.331,-0.818449014
100.332,-0.819424051
100.333,-0.820760324
100.334,-0.820859743
100.335,-0.819851237
100.336,-0.819224922
100.337,-0.818750705
100.33801,-0.818344473
100.339,-0.818013621
100.34,-0.817875145
100.341,-0.817935797
100.342,-0.817628286
100.343,-0.816471875
100.344,-0.815800158
100.345,-0.815550855
100.346,-0.815650157
100.347,-0.815663079
100.348,-0.814887229
100.349,-0.81424322
100.35,-0.813719118
,-0.883271277
