Structure Acceleration, RAO-Based Response
Line A: Structure Acceleration, RAO-Based Response - Global Z (Trimaran - Center of Gravity relative to Origin of Fixed Reference Axes (FRA)) [mm/s²]
,
*Time (s),Line A (mm/s?
97,-0.227354947
97.001,-0.227591197
97.002,-0.227830009
97.003,-0.228065808
97.004,-0.228301869
97.005,-0.228538091
97.006,-0.22877357
97.007,-0.229009718
97.008,-0.229244586
97.009,-0.22947829
97.01,-0.229712357
97.011,-0.229946454
97.012,-0.230177437
97.013,-0.230409874
97.014,-0.230644495
97.015,-0.230876889
97.016,-0.231106824
97.017,-0.231336991
97.018,-0.23156924
97.019,-0.231798709
97.02,-0.232027029
97.021,-0.232258899
97.022,-0.232487262
97.023,-0.232715771
97.024,-0.23294377
97.025,-0.233171711
97.026,-0.233398925
97.027,-0.233624771
97.028,-0.233849962
97.029,-0.2340762
97.03,-0.234304025
97.031,-0.234529187
97.032,-0.234753024
97.033,-0.234976193
97.034,-0.235201587
97.035,-0.235425963
97.036,-0.23564919
97.037,-0.235871572
97.038,-0.236092805
97.039,-0.236314372
97.04,-0.236536842
97.041,-0.236756285
97.042,-0.236976586
97.043,-0.237197455
97.044,-0.237416796
97.045,-0.237634784
97.046,-0.237856701
97.047,-0.238073233
97.048,-0.238290479
97.049,-0.238509892
97.05,-0.238725916
97.051,-0.238944223
97.052,-0.239160421
97.053,-0.239374494
97.054,-0.239590299
97.055,-0.239805784
97.056,-0.240020279
97.057,-0.240234483
97.058,-0.240445879
97.059,-0.240660782
97.06,-0.240873356
97.061,-0.241085305
97.062,-0.241297035
97.063,-0.241509813
97.064,-0.241721835
97.065,-0.241932299
97.066,-0.24214224
97.067,-0.242351642
97.068,-0.242561466
97.069,-0.242768845
97.07,-0.242977185
97.071,-0.243187562
97.072,-0.243394126
97.073,-0.243599701
97.074,-0.24380692
97.075,-0.244014111
97.076,-0.244219118
97.077,-0.244427007
97.078,-0.244631199
97.079,-0.244835945
97.08,-0.245040661
97.081,-0.245242874
97.082,-0.245446514
97.083,-0.24564864
97.084,-0.245851465
97.085,-0.246052281
97.086,-0.246254669
97.087,-0.24645566
97.088,-0.246655225
97.089,-0.246855139
97.09,-0.24705549
97.091,-0.24725683
97.092,-0.247456366
97.093,-0.247653981
97.094,-0.2478518
97.095,-0.248048949
97.096,-0.248246564
97.097,-0.248443452
97.098,-0.248639233
97.099,-0.24883388
97.1,-0.249030185
97.101,-0.249224511
97.102,-0.24941843
97.103,-0.249611738
97.104,-0.249805191
97.105,-0.250000128
97.106,-0.250192301
97.107,-0.250385288
97.108,-0.250576762
97.109,-0.250768178
97.11,-0.250958401
97.111,-0.251149351
97.112,-0.251338788
97.113,-0.251528953
97.114,-0.25171708
97.115,-0.251905149
97.116,-0.252093509
97.117,-0.25228216
97.118,-0.252467609
97.119,-0.252656464
97.12,-0.252842292
97.121,-0.253028295
97.122,-0.253213715
97.123,-0.253399834
97.124,-0.253584207
97.125,-0.25376823
97.126,-0.253951701
97.127,-0.254134764
97.128,-0.254318147
97.129,-0.254498998
97.13,-0.254680868
97.131,-0.254862476
97.132,-0.25504455
97.133,-0.25522444
97.134,-0.25540567
97.135,-0.255582971
97.136,-0.255762745
97.137,-0.255940628
97.138,-0.256119645
97.139,-0.256298023
97.14,-0.256475352
97.141,-0.256651139
97.142,-0.256829226
97.143,-0.257005071
97.144,-0.257179083
97.145,-0.257353502
97.146,-0.257529086
97.147,-0.257704582
97.148,-0.257877749
97.149,-0.258050102
97.15,-0.258222804
97.151,-0.258395739
97.152,-0.258566666
97.153,-0.258737738
97.154,-0.258909073
97.155,-0.259078573
97.156,-0.259249966
97.157,-0.259418564
97.158,-0.259588182
97.159,-0.259756518
97.16,-0.259925291
97.161,-0.260093075
97.162,-0.260259432
97.163,-0.26042675
97.164,-0.260593079
97.165,-0.260756788
97.166,-0.260922825
97.167,-0.261087785
97.168,-0.261253095
97.169,-0.26141468
97.17,-0.261577428
97.171,-0.26174204
97.172,-0.261905516
97.173,-0.262065645
97.174,-0.262228685
97.175,-0.26239056
97.176,-0.262549846
97.177,-0.262710208
97.178,-0.262869173
97.179,-0.263029011
97.18,-0.263186492
97.181,-0.263343449
97.182,-0.263501366
97.183,-0.263659167
97.184,-0.263814902
97.185,-0.263969327
97.186,-0.264123053
97.187,-0.264277915
97.188,-0.264432252
97.189,-0.264585338
97.19,-0.264736882
97.191,-0.264887494
97.192,-0.265039678
97.193,-0.26519224
97.194,-0.265344337
97.195,-0.265495619
97.196,-0.265647541
97.197,-0.26579859
97.198,-0.265948678
97.199,-0.266101182
97.2,-0.266250572
97.201,-0.266399846
97.202,-0.266550749
97.203,-0.266699033
97.204,-0.266849151
97.205,-0.266996474
97.206,-0.267141673
97.207,-0.267287804
97.208,-0.267435127
97.209,-0.267579133
97.21,-0.267724303
97.211,-0.267868192
97.212,-0.268014846
97.213,-0.268157979
97.214,-0.268302945
97.215,-0.268447096
97.216,-0.268593722
97.217,-0.268739183
97.218,-0.268882286
97.219,-0.269024691
97.22,-0.269167416
97.221,-0.269306387
97.222,-0.269444339
97.223,-0.269582204
97.224,-0.26971841
97.225,-0.269850832
97.226,-0.269981683
97.227,-0.270111457
97.228,-0.270243327
97.229,-0.270373595
97.23,-0.270506542
97.231,-0.270639168
97.232,-0.270773191
97.233,-0.27091059
97.234,-0.271047204
97.235,-0.271186524
97.236,-0.271325291
97.237,-0.271468976
97.238,-0.271608471
97.239,-0.271746336
97.24,-0.27187352
97.241,-0.272002653
97.242,-0.272133999
97.243,-0.272264617
97.244,-0.272386736
97.245,-0.27250711
97.246,-0.272624457
97.247,-0.272741861
97.248,-0.272861507
97.249,-0.272986043
97.25,-0.273109094
97.251,-0.273234211
97.252,-0.273359561
97.253,-0.273487181
97.254,-0.273616053
97.255,-0.273746613
97.256,-0.273876387
97.257,-0.274004968
97.258,-0.274131628
97.259,-0.274256454
97.26,-0.274377846
97.261,-0.274496531
97.262,-0.27461414
97.263,-0.274728722
97.264,-0.274840248
97.265,-0.274953753
97.266,-0.27506586
97.267,-0.27517663
97.268,-0.275288447
97.269,-0.275399332
97.27,-0.275512197
97.271,-0.275624858
97.272,-0.275736733
97.273,-0.275846891
97.274,-0.275959261
97.275,-0.276070787
97.276,-0.276181992
97.277,-0.276291568
97.278,-0.276403851
97.279,-0.276513572
97.28,-0.276623818
97.281,-0.276736362
97.282,-0.276845007
97.283,-0.276953273
97.284,-0.277063635
97.285,-0.277172832
97.286,-0.277281069
97.287,-0.277388724
97.288,-0.277495623
97.289,-0.277603569
97.29,-0.277709099
97.291,-0.277816202
97.292,-0.27792278
97.293,-0.278026826
97.294,-0.278131251
97.295,-0.278237043
97.296,-0.27834042
97.297,-0.278444728
97.298,-0.278547115
97.299,-0.278650812
97.3,-0.278753956
97.301,-0.278855121
97.302,-0.278955762
97.303,-0.27905748
97.304,-0.279158296
97.305,-0.279258442
97.306,-0.279357511
97.307,-0.279459317
97.308,-0.279556814
97.309,-0.279655622
97.31,-0.279753847
97.311,-0.279853877
97.312,-0.279952219
97.313,-0.280052045
97.314,-0.280148961
97.315,-0.280247565
97.316,-0.280346052
97.317,-0.280444976
97.318,-0.280541659
97.319,-0.280641107
97.32,-0.280741719
97.321,-0.280841108
97.322,-0.280941545
97.323,-0.281042157
97.324,-0.281144952
97.325,-0.281246932
97.326,-0.281337008
97.327,-0.281413813
97.328,-0.281494111
97.329,-0.281577901
97.33,-0.281664572
97.331,-0.281754124
97.332,-0.281845394
97.333,-0.281933666
97.334,-0.282020104
97.335,-0.282106659
97.336,-0.282192777
97.337,-0.282275723
97.338,-0.282356545
97.339,-0.282435562
97.34,-0.282514142
97.341,-0.282592227
97.342,-0.282667374
97.343,-0.282742054
97.344,-0.282811758
97.345,-0.282883964
97.346,-0.28295361
97.347,-0.28302407
97.348,-0.283092581
97.349,-0.283162371
97.35,-0.28323094
97.351,-0.283300789
97.352,-0.283372297
97.353,-0.28344334
97.354,-0.283515197
97.355,-0.283590547
97.356,-0.283664645
97.357,-0.283741101
97.358,-0.283815782
97.359,-0.283888832
97.36,-0.283963484
97.361,-0.284037378
97.362,-0.284110021
97.363,-0.284182461
97.364,-0.284255511
97.365,-0.284329726
97.366,-0.284404057
97.367,-0.284480571
97.368,-0.284557726
97.369,-0.284638081
97.37,-0.284720882
97.371,-0.284806621
97.372,-0.284898211
97.373,-0.284997601
97.374,-0.285074115
97.375,-0.285104063
97.376,-0.285138609
97.377,-0.285180548
97.378,-0.285225164
97.379,-0.285274844
97.38,-0.285331218
97.381,-0.285393966
97.382,-0.285459042
97.383,-0.285529153
97.384,-0.285603979
97.385,-0.285681017
97.386,-0.285762886
97.387,-0.28584656
97.388,-0.285931572
97.389,-0.28601542
97.39,-0.286097085
97.391,-0.286175928
97.392,-0.286248367
97.393,-0.286312192
97.394,-0.286364113
97.395,-0.286408293
97.396,-0.286441675
97.397,-0.286466908
97.398,-0.286487659
97.399,-0.286506402
97.4,-0.286532217
97.401,-0.286568276
97.402,-0.286626047
97.403,-0.286706927
97.404,-0.286818366
97.405,-0.286881434
97.406,-0.286866212
97.407,-0.28688967
97.408,-0.286962895
97.409,-0.287121948
97.41,-0.287422736
97.411,-0.287959352
97.412,-0.28884699
97.413,-0.28972092
97.414,-0.290645781
97.415,-0.291630422
97.416,-0.292485667
97.417,-0.29312406
97.418,-0.293528457
97.419,-0.293689402
97.42,-0.29364822
97.421,-0.293331163
97.422,-0.292697136
97.423,-0.291737902
97.424,-0.290607044
97.425,-0.289568095
97.426,-0.288494601
97.427,-0.288072595
97.428,-0.288002484
97.429,-0.288127514
97.43,-0.28853846
97.431,-0.289347547
97.432,-0.290233031
97.433,-0.290640834
97.434,-0.290735537
97.435,-0.290469237
97.436,-0.289750111
97.437,-0.288925512
97.438,-0.288542651
97.439,-0.288506533
97.44,-0.288735231
97.441,-0.289205083
97.442,-0.289663556
97.443,-0.289768737
97.444,-0.289462943
97.445,-0.289028249
97.446,-0.288789684
97.447,-0.288784708
97.448,-0.288951531
97.449,-0.289160438
97.45,-0.289208605
97.451,-0.289087184
97.452,-0.288956828
97.453,-0.288916723
97.454,-0.288953539
97.455,-0.289001007
97.456,-0.288998825
97.457,-0.288992189
97.458,-0.289011601
97.459,-0.28902138
97.46,-0.289000425
97.461,-0.288983807
97.462,-0.289013638
97.463,-0.289094372
97.464,-0.289106771
97.465,-0.289057585
97.466,-0.28906879
97.467,-0.289122079
97.468,-0.289216056
97.469,-0.289147923
97.47,-0.289166492
97.471,-0.289186573
97.472,-0.28932729
97.473,-0.289229414
97.474,-0.289253076
97.475,-0.2892958
97.476,-0.289460877
97.477,-0.289292482
97.478,-0.289310614
97.479,-0.289569347
97.48,-0.289433112
97.481,-0.289367221
97.482,-0.289666757
97.483,-0.289791904
97.484,-0.289448391
97.485,-0.289865973
97.486,-0.290152588
97.487,-0.290147989
97.488,-0.290595373
97.489,-0.291292643
97.49,-0.292103272
97.491,-0.292111596
97.492,-0.293740712
97.493,-0.294386758
97.494,-0.293775258
97.495,-0.300795655
97.496,-0.290596567
97.497,-0.292768265
97.498,-0.296919257
97.499,-0.290382595
97.5,-0.297101855
97.501,-0.291860866
97.502,-0.292473182
97.503,-0.300214975
97.504,-0.293542515
97.505,-0.299387786
97.506,-0.29644501
97.507,-0.296955666
97.508,-0.300998596
97.509,-0.289696065
97.51,-0.299504754
97.511,-0.292521348
97.512,-0.295303355
97.513,-0.296397717
97.514,-0.292374316
97.515,-0.298053812
97.516,-0.291798468
97.517,-0.297062797
97.518,-0.2945202
97.519,-0.291429635
97.52,-0.299803389
97.521,-0.292720302
97.522,-0.298647472
97.523,-0.295631879
97.524,-0.296536222
97.525,-0.298090483
97.526,-0.29432337
97.527,-0.299091393
97.528,-0.294065161
97.529,-0.298635277
97.53,-0.298031315
97.531,-0.291630218
97.532,-0.301156746
97.533,-0.290673372
97.534,-0.299585314
97.535,-0.293880148
97.536,-0.297037099
97.537,-0.296989892
97.538,-0.294472498
97.539,-0.29797398
97.54,-0.293788704
97.541,-0.297607621
97.542,-0.294738216
97.543,-0.296214741
97.544,-0.296605693
97.545,-0.293766585
97.546,-0.298110361
97.547,-0.292421726
97.548,-0.298315746
97.549,-0.292284851
97.55,-0.29540676
97.551,-0.296580431
97.552,-0.289497868
97.553,-0.299330131
97.554,-0.290821277
97.555,-0.298272615
97.556,-0.292615121
97.557,-0.296227954
97.558,-0.295110716
97.559,-0.294545374
97.56,-0.296483777
97.561,-0.293682271
97.562,-0.297017279
97.563,-0.293728663
97.564,-0.296741986
97.565,-0.29452474
97.566,-0.295770296
97.567,-0.295859965
97.568,-0.294578495
97.569,-0.296852289
97.57,-0.293705671
97.571,-0.297496706
97.572,-0.29356312
97.573,-0.29782916
97.574,-0.294252037
97.575,-0.297512393
97.576,-0.294828496
97.577,-0.297237071
97.578,-0.298035739
97.579,-0.29798341
97.58,-0.300534361
97.581,-0.295144564
97.582,-0.300083309
97.583,-0.294639496
97.584,-0.299042993
97.585,-0.294758182
97.586,-0.298765488
97.587,-0.294866128
97.588,-0.298598228
97.589,-0.295754347
97.59,-0.298782514
97.591,-0.297049934
97.592,-0.299871812
97.593,-0.292453682
97.594,-0.298651226
97.595,-0.288450246
97.596,-0.296036626
97.597,-0.291879667
97.598,-0.300163432
97.599,-0.290634809
97.6,-0.300118758
97.601,-0.288876152
97.602,-0.299352861
97.603,-0.290136319
97.604,-0.300043088
97.605,-0.287935312
97.606,-0.297446386
97.607,-0.289491029
97.608,-0.29991148
97.609,-0.290082506
97.61,-0.299863575
97.611,-0.287537754
97.612,-0.292542099
97.613,-0.29967408
97.614,-0.28960823
97.615,-0.299511943
97.616,-0.288963813
97.617,-0.297192018
97.618,-0.296620652
97.619,-0.28747131
97.62,-0.297375838
97.621,-0.289061514
97.622,-0.29923991
97.623,-0.287117466
97.624,-0.296957325
97.625,-0.289903983
97.626,-0.299255247
97.627,-0.286983501
97.628,-0.299169507
97.629,-0.288386509
97.63,-0.29785154
97.631,-0.287012866
97.632,-0.298969797
97.633,-0.287594157
97.634,-0.298205239
97.635,-0.28636682
97.636,-0.29881412
97.637,-0.28655288
97.638,-0.298696337
97.639,-0.28748138
97.64,-0.296362909
97.641,-0.286306517
97.642,-0.298411178
97.643,-0.288500305
97.644,-0.29844133
97.645,-0.285955204
97.646,-0.298193132
97.647,-0.290595024
97.648,-0.298098079
97.649,-0.289244897
97.65,-0.296248589
97.651,-0.285456772
97.652,-0.292887533
97.653,-0.285323535
97.654,-0.29655543
97.655,-0.296149054
97.656,-0.297219871
97.657,-0.296239858
97.658,-0.293025514
97.659,-0.295932812
97.66,-0.292870769
97.661,-0.29727252
97.662,-0.292010431
97.663,-0.297361519
97.664,-0.291115342
97.665,-0.296394748
97.666,-0.289016287
97.667,-0.286183407
97.668,-0.291358971
97.669,-0.284296431
97.67,-0.29366478
97.671,-0.285566057
97.672,-0.292749639
97.673,-0.292200071
97.674,-0.293116289
97.675,-0.291613804
97.676,-0.293026969
97.677,-0.290158059
97.678,-0.289757649
97.679,-0.293930701
97.68,-0.293161662
97.681,-0.291709759
97.682,-0.29156325
97.683,-0.293428951
97.684,-0.291550823
97.685,-0.292034907
97.686,-0.289413496
97.687,-0.292124634
97.688,-0.291892997
97.689,-0.293686811
97.69,-0.292062789
97.691,-0.292839046
97.692,-0.290465396
97.693,-0.293621648
97.694,-0.290580618
97.695,-0.291666016
97.696,-0.291744887
97.697,-0.293298217
97.698,-0.288860931
97.699,-0.291585311
,-0.301156746
