Structure Acceleration, RAO-Based Response
Line A: Structure Acceleration, RAO-Based Response - Global Z (Trimaran - Center of Gravity relative to Origin of Fixed Reference Axes (FRA)) [mm/s²]
,
*Time (s),Line A (mm/s?
99.5,-0.922015635
99.501,-0.922220526
99.502,-0.922422914
99.503,-0.922628271
99.504,-0.922830484
99.505,-0.923027517
99.506,-0.923230604
99.507,-0.923426356
99.508,-0.92362857
99.509,-0.923820771
99.51,-0.924012973
99.511,-0.9242128
99.512,-0.924399938
99.513,-0.924591091
99.514,-0.924779568
99.515,-0.924970664
99.516,-0.925157045
99.517,-0.925346103
99.518,-0.925526954
99.519,-0.925710774
99.52,-0.925895758
99.521,-0.926070381
99.522,-0.926255714
99.523,-0.926433946
99.524,-0.926608162
99.525,-0.926785171
99.526,-0.926959736
99.527,-0.927130459
99.528,-0.927306653
99.529,-0.927472836
99.53,-0.927641988
99.531,-0.927815272
99.532,-0.927979476
99.533,-0.928145309
99.534,-0.928314228
99.535,-0.928475754
99.536,-0.928637281
99.537,-0.928798341
99.538,-0.928959926
99.539,-0.929117552
99.54,-0.92927611
99.541,-0.929431699
99.542,-0.929587928
99.543,-0.929739501
99.544,-0.929886766
99.545,-0.930041191
99.546,-0.930189562
99.547,-0.930338283
99.548,-0.930486829
99.549,-0.930632057
99.55,-0.93078072
99.551,-0.930921582
99.552,-0.931063551
99.553,-0.931209186
99.554,-0.931346673
99.555,-0.931485556
99.556,-0.931623566
99.557,-0.931758725
99.558,-0.931895513
99.559,-0.932027586
99.56,-0.932161056
99.561,-0.932292605
99.562,-0.932421535
99.563,-0.932550931
99.564,-0.932681956
99.565,-0.93280914
99.566,-0.93292899
99.567,-0.93305693
99.568,-0.933178235
99.569,-0.933296629
99.57,-0.933420262
99.571,-0.93353691
99.572,-0.933654432
99.573,-0.933774456
99.574,-0.933888543
99.575,-0.934001524
99.576,-0.934116833
99.577,-0.934226555
99.578,-0.934337382
99.579,-0.93444786
99.58,-0.934557
99.581,-0.934662763
99.582,-0.934769458
99.583,-0.934871903
99.584,-0.934975978
99.585,-0.935075746
99.586,-0.935173768
99.587,-0.935275166
99.588,-0.935376855
99.589,-0.935473246
99.59,-0.935569173
99.591,-0.935660093
99.592,-0.935756776
99.593,-0.935845776
99.594,-0.935937394
99.595,-0.936033204
99.596,-0.93611551
99.597,-0.936205208
99.598,-0.936293451
99.599,-0.936372089
99.6,-0.936463708
99.601,-0.936540542
99.602,-0.936621625
99.603,-0.936707074
99.604,-0.936779776
99.605,-0.936859637
99.606,-0.936936121
99.607,-0.937010278
99.608,-0.937078905
99.609,-0.937155157
99.61,-0.93722844
99.611,-0.937294913
99.612,-0.937368895
99.613,-0.937431701
99.614,-0.937503646
99.615,-0.937568722
99.616,-0.937631063
99.617,-0.937696954
99.618,-0.937759643
99.619,-0.937816221
99.62,-0.937877281
99.621,-0.937932055
99.622,-0.937991426
99.623,-0.938046374
99.624,-0.938101264
99.625,-0.938159472
99.626,-0.938203011
99.627,-0.938254409
99.628,-0.938307552
99.629,-0.938354002
99.63,-0.938401383
99.631,-0.938449171
99.632,-0.93849207
99.633,-0.938532117
99.634,-0.938580371
99.635,-0.93861873
99.636,-0.938662153
99.637,-0.938700279
99.638,-0.938732235
99.639,-0.938775018
99.64,-0.938809069
99.641,-0.938842946
99.642,-0.938876765
99.643,-0.938906742
99.644,-0.938935962
99.645,-0.938970887
99.646,-0.938995217
99.647,-0.939022575
99.648,-0.93904807
99.649,-0.939067744
99.65,-0.939094229
99.651,-0.939113495
99.652,-0.939136487
99.653,-0.939154357
99.654,-0.93917246
99.655,-0.939186779
99.656,-0.939207326
99.657,-0.939222053
99.658,-0.939230435
99.659,-0.939248828
99.66,-0.93925721
99.661,-0.939270831
99.662,-0.939274847
99.663,-0.939279911
99.664,-0.939291902
99.665,-0.939293648
99.666,-0.939297082
99.667,-0.939302554
99.668,-0.93930104
99.669,-0.939298421
99.67,-0.939302496
99.671,-0.939296093
99.672,-0.939290971
99.673,-0.939291262
99.674,-0.939282239
99.675,-0.939279154
99.676,-0.939269376
99.677,-0.939255639
99.678,-0.939248188
99.679,-0.939236372
99.68,-0.939218735
99.681,-0.93920721
99.682,-0.939193706
99.683,-0.939172634
99.684,-0.939158315
99.685,-0.939132413
99.686,-0.939107384
99.687,-0.939085847
99.688,-0.939057791
99.689,-0.939035323
99.69,-0.939001853
99.691,-0.938974845
99.692,-0.938945916
99.693,-0.938920595
99.694,-0.938889163
99.695,-0.938864483
99.696,-0.938829849
99.697,-0.938796962
99.698,-0.938771351
99.699,-0.938735495
99.7,-0.938699231
99.701,-0.938666577
99.702,-0.9386249
99.703,-0.938592595
99.704,-0.938549463
99.705,-0.938508252
99.706,-0.93847001
99.707,-0.938421697
99.708,-0.938374724
99.709,-0.938332058
99.71,-0.938284677
99.711,-0.93823747
99.712,-0.938190788
99.713,-0.938142417
99.714,-0.938094337
99.715,-0.938045676
99.716,-0.937993405
99.717,-0.937937584
99.718,-0.937885721
99.719,-0.937818084
99.72,-0.937761215
99.721,-0.937695906
99.722,-0.93762367
99.723,-0.937556906
99.724,-0.9374824
99.725,-0.937409292
99.726,-0.93733985
99.727,-0.937271456
99.728,-0.937199977
99.729,-0.937139266
99.73,-0.937075471
99.731,-0.937017845
99.732,-0.936953467
99.733,-0.936893804
99.734,-0.936824945
99.735,-0.936751079
99.736,-0.936672906
99.737,-0.936589553
99.738,-0.93650067
99.739,-0.936399214
99.74,-0.936303986
99.741,-0.93620416
99.742,-0.936112949
99.743,-0.936020049
99.744,-0.935927674
99.745,-0.935845135
99.746,-0.935759221
99.747,-0.935675111
99.748,-0.93560369
99.749,-0.935522839
99.75,-0.935451186
99.751,-0.935374759
99.752,-0.935270044
99.753,-0.935169752
99.754,-0.935064745
99.755,-0.934966956
99.756,-0.934874988
99.757,-0.934780692
99.758,-0.934675511
99.759,-0.934556767
99.76,-0.934434822
99.761,-0.934303971
99.762,-0.934177369
99.763,-0.934055017
99.764,-0.933936855
99.765,-0.933816016
99.766,-0.933695293
99.767,-0.933577481
99.768,-0.93345833
99.769,-0.933335512
99.77,-0.933217234
99.771,-0.933090283
99.772,-0.93297218
99.773,-0.932855241
99.774,-0.932727242
99.775,-0.932605995
99.776,-0.932483876
99.777,-0.932355004
99.778,-0.932239112
99.779,-0.932106108
99.78,-0.931978691
99.781,-0.931854651
99.782,-0.93172316
99.783,-0.931593589
99.784,-0.931465591
99.785,-0.931332354
99.786,-0.931193412
99.787,-0.93106454
99.788,-0.930926239
99.789,-0.930794748
99.79,-0.930656912
99.791,-0.930515525
99.792,-0.930381066
99.793,-0.930238282
99.794,-0.930092356
99.795,-0.92995516
99.796,-0.929809292
99.797,-0.929663074
99.798,-0.929525937
99.799,-0.929370522
99.8,-0.929230475
99.801,-0.929078611
99.802,-0.928927679
99.803,-0.928783964
99.804,-0.928629946
99.805,-0.928479654
99.806,-0.928327907
99.807,-0.928172551
99.808,-0.92801865
99.809,-0.927865913
99.81,-0.927712012
99.811,-0.927552523
99.812,-0.927401124
99.813,-0.927244022
99.814,-0.927094603
99.815,-0.926938374
99.816,-0.926781911
99.817,-0.926634355
99.818,-0.926479173
99.819,-0.926326378
99.82,-0.926154316
99.821,-0.925961416
99.822,-0.925762521
99.823,-0.925575732
99.824,-0.925379572
99.825,-0.925187836
99.826,-0.925008557
99.827,-0.92482497
99.828,-0.924654538
99.829,-0.924478692
99.83,-0.924303196
99.831,-0.924134336
99.832,-0.923956395
99.833,-0.923776766
99.834,-0.923599
99.835,-0.923418382
99.836,-0.923229498
99.837,-0.923048705
99.838,-0.922856561
99.839,-0.922664127
99.84,-0.922475243
99.841,-0.922269654
99.842,-0.922073377
99.843,-0.921868894
99.844,-0.921661325
99.845,-0.921456725
99.846,-0.921248866
99.847,-0.921035069
99.848,-0.920827733
99.849,-0.920614868
99.85,-0.92040177
99.851,-0.920197577
99.852,-0.919985527
99.853,-0.91977889
99.854,-0.919579703
99.855,-0.919374288
99.856,-0.919181388
99.857,-0.918982609
99.858,-0.918783597
99.859,-0.918584643
99.86,-0.918381033
99.861,-0.918164849
99.862,-0.917950994
99.863,-0.917719852
99.864,-0.917488011
99.865,-0.917257043
99.866,-0.91702881
99.867,-0.916805468
99.868,-0.916608376
99.869,-0.916428864
99.87,-0.916277408
99.871,-0.916003366
99.872,-0.915728568
99.873,-0.915486249
99.874,-0.915251439
99.875,-0.915023265
99.876,-0.914806908
99.877,-0.914587174
99.878,-0.914369361
99.879,-0.914154283
99.88,-0.913930475
99.881,-0.913707947
99.882,-0.913471857
99.883,-0.91324182
99.884,-0.913008582
99.885,-0.912766031
99.886,-0.912520278
99.887,-0.912276329
99.888,-0.912025978
99.889,-0.911778654
99.89,-0.911531388
99.891,-0.911279698
99.892,-0.911032024
99.893,-0.910775969
99.894,-0.910523057
99.895,-0.910270377
99.896,-0.910017465
99.897,-0.90976269
99.898,-0.909514667
99.899,-0.909257506
99.9,-0.90900244
99.901,-0.908754242
99.902,-0.908496557
99.903,-0.908239337
99.904,-0.907985203
99.905,-0.907725014
99.906,-0.907472044
99.907,-0.907211856
99.908,-0.906953705
99.909,-0.906707079
99.91,-0.906456728
99.911,-0.906234665
99.912,-0.906039262
99.913,-0.905897061
99.914,-0.905843277
99.915,-0.905950379
99.916,-0.906307076
99.917,-0.907073671
99.918,-0.908427988
99.919,-0.910496688
99.92,-0.912421267
99.921,-0.914680713
99.922,-0.916941382
99.923,-0.918871665
99.924,-0.920253398
99.925,-0.921044149
99.926,-0.921252009
99.927,-0.920878141
99.928,-0.919945014
99.929,-0.918410835
99.93,-0.916284451
99.931,-0.913659576
99.932,-0.910754374
99.933,-0.907995389
99.934,-0.905477558
99.935,-0.90331363
99.936,-0.901950698
99.937,-0.901224383
99.938,-0.900998421
99.939,-0.901256804
99.94,-0.901986554
99.941,-0.903093489
99.942,-0.90424245
99.943,-0.90476271
99.944,-0.904822955
99.945,-0.904376735
99.946,-0.903533481
99.947,-0.902471482
99.948,-0.90129365
99.949,-0.900386949
99.95,-0.899810868
99.951,-0.899502134
99.952,-0.899303239
99.953,-0.899084669
99.954,-0.898753467
99.955,-0.898382452
99.956,-0.898162078
99.957,-0.898231519
99.958,-0.898642465
99.959,-0.899110106
99.96,-0.899050385
99.961,-0.898345141
99.962,-0.896812533
99.963,-0.895259494
99.964,-0.894397497
99.965,-0.894656812
99.966,-0.896170968
99.967,-0.897832913
99.968,-0.898387982
99.969,-0.897069986
99.97,-0.894347671
99.971,-0.892050331
99.972,-0.891732168
99.973,-0.893826364
99.974,-0.896797457
99.975,-0.898016617
99.976,-0.895772944
99.977,-0.891741423
99.978,-0.889466086
99.979,-0.890638621
99.98,-0.894821773
99.981,-0.897804159
99.982,-0.895601406
99.983,-0.890374125
99.984,-0.887563336
99.985,-0.889784715
99.986,-0.895429752
99.987,-0.897450547
99.988,-0.892261683
99.989,-0.886612281
99.99,-0.886791851
99.991,-0.893133285
99.992,-0.897480233
99.993,-0.892220822
99.994,-0.885252026
99.995,-0.885630259
99.996,-0.893538527
99.997,-0.896914164
99.998,-0.888892158
99.999,-0.883042638
100,-0.887202972
,-0.939302554
