Structure Acceleration, RAO-Based Response
Line A: Structure Acceleration, RAO-Based Response - Global Z (Trimaran - Center of Gravity relative to Origin of Fixed Reference Axes (FRA)) [mm/s²]
,
*Time (s),Line A (mm/s?
99.9,-0.64337824
99.901,-0.643513573
99.902,-0.643650244
99.903,-0.643779174
99.904,-0.643912354
99.905,-0.64404367
99.906,-0.644167594
99.90701,-0.644303393
99.908,-0.644424639
99.909,-0.644551183
99.91,-0.644676446
99.911,-0.644797052
99.912,-0.644924177
99.913,-0.645048858
99.914,-0.645168184
99.915,-0.645284483
99.916,-0.645406661
99.917,-0.645523949
99.918,-0.64564374
99.919,-0.645761145
99.92,-0.645876455
99.92101,-0.645990192
99.922,-0.646104512
99.923,-0.646219705
99.924,-0.646332162
99.925,-0.646437402
99.926,-0.646548171
99.927,-0.646660454
99.928,-0.646766217
99.929,-0.646876288
99.93,-0.646981876
99.931,-0.647083565
99.932,-0.647186476
99.933,-0.647295616
99.934,-0.647390727
99.93501,-0.647497247
99.936,-0.647593988
99.937,-0.647695677
99.938,-0.647798588
99.939,-0.647892477
99.94,-0.647988054
99.941,-0.648084155
99.942,-0.648176181
99.943,-0.648272457
99.944,-0.648367568
99.945,-0.648455869
99.946,-0.648549874
99.947,-0.648642716
99.948,-0.648725894
99.94901,-0.648818328
99.95,-0.648902729
99.951,-0.64898585
99.952,-0.649072754
99.953,-0.649154477
99.954,-0.649236958
99.955,-0.64932392
99.956,-0.649400172
99.957,-0.649486727
99.958,-0.649562629
99.959,-0.649640337
99.96,-0.649718102
99.961,-0.649797323
99.962,-0.649869675
99.96301,-0.649948197
99.964,-0.650019269
99.965,-0.650097325
99.966,-0.650172064
99.967,-0.650237082
99.968,-0.650304195
99.969,-0.650371832
99.97,-0.650442496
99.971,-0.650511123
99.972,-0.650579634
99.973,-0.650641508
99.974,-0.65070868
99.975,-0.65076875
99.976,-0.650830625
99.97701,-0.650893024
99.978,-0.650949194
99.979,-0.651014096
99.98,-0.651076436
99.981,-0.651131268
99.982,-0.65119029
99.983,-0.651247799
99.984,-0.651304726
99.985,-0.651354436
99.986,-0.651409558
99.987,-0.651457987
99.988,-0.651512353
99.989,-0.651561189
99.99,-0.651608745
99.991,-0.651657232
99.992,-0.651705952
99.993,-0.651755312
99.994,-0.651798386
99.995,-0.651841168
99.996,-0.651888258
99.997,-0.65193238
99.998,-0.651969574
99.999,-0.652015617
100,-0.652059389
100.001,-0.652098097
100.002,-0.652132381
100.003,-0.652172253
100.004,-0.652205315
100.005,-0.652244606
100.006,-0.652276329
100.007,-0.652310497
100.008,-0.652348739
100.009,-0.652374525
100.01,-0.652407238
100.011,-0.652434654
100.012,-0.652461487
100.013,-0.652494084
100.014,-0.652523711
100.015,-0.652546296
100.016,-0.652573945
100.017,-0.652599556
100.018,-0.652621966
100.019,-0.652647053
100.02,-0.652666786
100.021,-0.652685761
100.022,-0.652710209
100.023,-0.652727671
100.024,-0.652748218
100.025,-0.652766612
100.026,-0.652779476
100.027,-0.652799266
100.028,-0.652807532
100.029,-0.652819232
100.03,-0.652832387
100.031,-0.652849267
100.03201,-0.652855611
100.033,-0.652869523
100.034,-0.652876915
100.035,-0.652887044
100.036,-0.652895658
100.037,-0.652902119
100.038,-0.652905088
100.039,-0.652913412
100.04,-0.652912771
100.041,-0.652916962
100.042,-0.652923191
100.043,-0.652923016
100.044,-0.652926392
100.045,-0.65292028
100.04601,-0.652921735
100.047,-0.652917661
100.048,-0.65291184
100.049,-0.652905554
100.05,-0.652901945
100.051,-0.652895309
100.052,-0.652890827
100.053,-0.652885006
100.054,-0.65286702
100.055,-0.652858231
100.056,-0.652853225
100.057,-0.652836985
100.058,-0.652825693
100.059,-0.652816379
100.06001,-0.652800605
100.061,-0.652787858
100.062,-0.652767136
100.063,-0.652753981
100.064,-0.652734539
100.065,-0.652711955
100.066,-0.652693911
100.067,-0.652678078
100.068,-0.652649731
100.069,-0.652627496
100.07,-0.652605726
100.071,-0.652577321
100.072,-0.652553223
100.073,-0.652532675
100.07401,-0.652499322
100.075,-0.652475981
100.076,-0.652441639
100.077,-0.652413408
100.078,-0.652384071
100.079,-0.652349496
100.08,-0.652320741
100.081,-0.652285351
100.082,-0.652248971
100.083,-0.652214221
100.084,-0.652178482
100.085,-0.652135233
100.086,-0.652095187
100.087,-0.652048911
100.08801,-0.652005721
100.089,-0.651958166
100.09,-0.651909097
100.091,-0.651867187
100.092,-0.651825045
100.093,-0.651779119
100.094,-0.651735987
100.095,-0.651698152
100.096,-0.651648443
100.097,-0.651606126
100.098,-0.651559036
100.099,-0.651515322
100.1,-0.651469571
100.101,-0.651428301
100.10201,-0.651375216
100.103,-0.651330396
100.104,-0.651274691
100.105,-0.651224109
100.106,-0.651172188
100.107,-0.651113514
100.108,-0.65105356
100.109,-0.651002279
100.11,-0.650947564
100.111,-0.650892092
100.112,-0.650839298
100.113,-0.650781556
100.114,-0.650735514
100.115,-0.650674279
100.116,-0.650615024
100.117,-0.650549948
100.118,-0.650485454
100.119,-0.650419563
100.12,-0.650352158
100.121,-0.650272996
100.122,-0.65020012
100.123,-0.650120259
100.124,-0.650032132
100.125,-0.649950176
100.126,-0.64987829
100.127,-0.649797264
100.128,-0.649731955
100.129,-0.649663212
100.13,-0.649600115
100.131,-0.649543596
100.132,-0.649489055
100.133,-0.649445166
100.134,-0.649346737
100.135,-0.649247551
100.136,-0.649159017
100.137,-0.649076945
100.138,-0.648999528
100.139,-0.648928864
100.14,-0.648870366
100.141,-0.648803194
100.142,-0.6486887
100.143,-0.648567046
100.144,-0.64843148
100.145,-0.648308545
100.146,-0.648187939
100.147,-0.648079906
100.148,-0.647968845
100.149,-0.647866866
100.15,-0.647770474
100.151,-0.647680135
100.152,-0.647593173
100.153,-0.647515699
100.154,-0.647437817
100.155,-0.647357607
100.156,-0.647288514
100.15701,-0.64722012
100.158,-0.647160516
100.159,-0.647095963
100.16,-0.647027802
100.161,-0.646956207
100.162,-0.64687425
100.163,-0.646771165
100.164,-0.646671571
100.165,-0.646571629
100.166,-0.646462257
100.167,-0.646344735
100.168,-0.646226923
100.169,-0.646117376
100.17,-0.646000786
100.17101,-0.645882334
100.172,-0.645764812
100.173,-0.645648863
100.174,-0.645532215
100.175,-0.645417953
100.176,-0.645295018
100.177,-0.64517674
100.178,-0.645061431
100.179,-0.644939544
100.18,-0.644822139
100.181,-0.64470811
100.182,-0.644586573
100.183,-0.644465094
100.184,-0.644341751
100.18501,-0.644221669
100.186,-0.644100073
100.187,-0.64397481
100.188,-0.643848849
100.189,-0.643728359
100.19,-0.643602281
100.191,-0.643482723
100.192,-0.643357402
100.193,-0.643229345
100.194,-0.643103675
100.195,-0.64297748
100.196,-0.642848434
100.197,-0.642722123
100.198,-0.642596802
100.19901,-0.642459723
100.2,-0.642334169
100.201,-0.642200874
100.202,-0.642072875
100.203,-0.64193923
100.204,-0.641805527
100.205,-0.641677179
100.206,-0.641542894
100.207,-0.641403196
100.208,-0.641270308
100.209,-0.641139573
100.21,-0.641004532
100.211,-0.640866754
100.212,-0.640734273
100.21301,-0.640593644
100.214,-0.640464074
100.215,-0.640323793
100.216,-0.640195096
100.217,-0.640062848
100.218,-0.639926817
100.219,-0.639795559
100.22,-0.639661273
100.221,-0.639522332
100.222,-0.639390724
100.223,-0.639258069
100.224,-0.639124599
100.225,-0.63899043
100.226,-0.638848229
100.22701,-0.638696016
100.228,-0.638536352
100.229,-0.638364349
100.23,-0.638192403
100.231,-0.638026278
100.232,-0.637858582
100.233,-0.637700898
100.234,-0.637544144
100.235,-0.637385529
100.236,-0.637234596
100.237,-0.637087156
100.238,-0.636936573
100.239,-0.636798562
100.24,-0.636665965
100.241,-0.636529585
100.242,-0.636386976
100.243,-0.636187789
100.244,-0.635987788
100.245,-0.635786681
100.246,-0.635575969
100.247,-0.635370496
100.248,-0.635183475
100.249,-0.634995755
100.25,-0.634816126
100.251,-0.634647324
100.252,-0.634478172
100.253,-0.634323282
100.254,-0.634170137
100.255,-0.634023454
100.256,-0.633885385
100.257,-0.633744989
100.258,-0.633624091
100.259,-0.633492367
100.26,-0.63335622
100.261,-0.633209886
100.262,-0.63301553
100.263,-0.632816576
100.264,-0.632633455
100.265,-0.632450799
100.266,-0.632269192
100.267,-0.632099691
100.26801,-0.631929899
100.269,-0.631745555
100.27,-0.631548406
100.271,-0.631338102
100.272,-0.631132745
100.273,-0.630919298
100.274,-0.630701485
100.275,-0.630486174
100.276,-0.630272436
100.277,-0.630054157
100.278,-0.629836228
100.279,-0.629621965
100.28,-0.629400369
100.281,-0.629185583
100.28201,-0.62897068
100.283,-0.628758455
100.284,-0.628552923
100.285,-0.628341804
100.286,-0.628140813
100.287,-0.627940404
100.288,-0.627734466
100.289,-0.627536676
100.29,-0.627340225
100.291,-0.627145986
100.292,-0.626953435
100.293,-0.626765657
100.294,-0.626571185
100.295,-0.62638853
100.29601,-0.626204244
100.297,-0.626028515
100.298,-0.62586373
100.299,-0.625706976
100.3,-0.62557403
100.301,-0.625468732
100.302,-0.625383807
100.303,-0.625278277
100.304,-0.624914595
100.305,-0.624563254
100.306,-0.624239445
100.307,-0.623964355
100.308,-0.623757136
100.309,-0.623681291
100.31001,-0.623804051
100.311,-0.624269422
100.312,-0.625184388
100.313,-0.625141081
100.314,-0.625329267
100.315,-0.625658489
100.316,-0.625947956
100.317,-0.626134803
100.318,-0.626183697
100.319,-0.62602479
100.32,-0.625825662
100.321,-0.625544169
100.322,-0.625026762
100.323,-0.62432437
100.32401,-0.623464177
100.325,-0.622686406
100.326,-0.62193675
100.327,-0.620509556
100.328,-0.619795697
100.329,-0.619453494
100.33,-0.619286147
100.331,-0.619359314
100.332,-0.619850063
100.333,-0.620694191
100.334,-0.620643434
100.335,-0.620505831
100.336,-0.620253093
100.337,-0.619938597
100.33801,-0.618930557
100.339,-0.617859594
100.34,-0.617250917
100.341,-0.61696989
100.342,-0.616943173
100.343,-0.617143523
100.344,-0.617354759
100.345,-0.617257552
100.346,-0.616772333
100.347,-0.616109406
100.348,-0.615562603
100.349,-0.615221041
100.35,-0.615033554
,-0.652926392
